elapsed_ms,ir
47334,202139
47344,202147
47356,202141
47364,202124
47375,202139
47384,202126
47394,202125
47404,202128
47414,202096
47424,202106
47434,202087
47444,202096
47454,202112
47464,202076
47474,202094
47484,202110
47494,202103
47504,202109
47514,202129
47524,202121
47534,202137
47544,202116
47554,202130
47564,202137
47574,202130
47584,202134
47594,202144
47604,202140
47614,202156
47624,202134
47634,202163
47644,202172
47654,202147
47664,202157
47674,202170
47684,202158
47694,202169
47704,202149
47714,202157
47724,202167
47734,202155
47745,202150
47756,202135
47764,202145
47774,202169
47784,202146
47794,202187
47804,202190
47814,202176
47824,202176
47835,202159
47845,202103
47854,202058
47894,201965
47935,202212
47944,202227
47954,202298
47964,202328
47974,202346
47984,202355
47994,202374
48004,202385
48014,202374
48024,202393
48034,202358
48044,202370
48054,202365
48064,202379
48074,202335
48084,202321
48094,202269
48105,202234
48114,202169
48124,202120
48136,202010
48146,201910
48156,201863
48165,201771
48176,201691
48185,201620
48195,201579
48206,201517
48215,201416
48225,201262
48236,201071
48245,200903
48256,200855
48265,200903
48276,201042
48285,201092
48296,201179
48305,201220
48316,201289
48325,201339
48336,201407
48345,201470
48356,201498
48365,201545
48376,201576
48385,201607
48396,201601
48405,201604
48416,201604
48425,201606
48469,201734
48516,201817
48559,201071
48567,202082
48575,202126
48585,202211
48596,202199
48605,202249
48615,202277
48625,202289
48635,202356
48645,202436
48655,202446
48665,202514
48676,202561
48685,202520
48695,202488
48705,202489
48715,202485
48725,202497
48735,202497
48745,202580
48755,202574
48765,202632
48775,202661
48785,202706
48795,202654
48805,202581
48815,202473
48825,202422
48835,202385
48845,202368
48855,202371
48865,202401
48875,202436
48885,202444
48895,202391
48905,202410
48915,202282
48925,202241
48935,202234
48946,202280
48957,202327
48965,202331
48975,202353
48986,202433
48995,202381
49005,202382
49015,202382
49025,202390
49035,202357
49045,202323
49055,202316
49106,202316
49147,202254
49197,202278
49207,202275
49216,202253
49226,202276
49237,202305
49246,202300
49256,202342
49266,202328
49277,202352
49286,202352
49296,202388
49306,202376
49317,202393
49326,202440
49336,202463
49346,202495
49356,202512
49367,202537
49376,202570
49385,202631
49397,202653
49406,202692
49417,202728
49455,202724
49467,202835
49477,202865
49487,202888
49496,202915
49506,202935
49517,202957
49526,203002
49536,203039
49548,203049
49556,203080
49567,203083
49576,203109
49586,203091
49597,203153
49607,203226
49616,203285
49626,203349
49637,203350
49646,203381
49656,203346
49666,203411
49677,203397
49686,203431
49696,203453
49741,203343
49749,203257
49788,203233
49799,203110
49809,203121
49817,203139
49857,203025
49867,203005
49876,203005
49887,203019
49896,203029
49906,203035
49917,203052
49926,203012
49936,203000
49946,202990
49957,203003
49966,202998
49976,202971
49986,202956
49997,203023
50006,202965
50016,203013
50026,202991
50037,203039
50046,203029
50056,203418
50066,203534
50076,203616
50087,203720
50096,203788
50106,203878
50117,203949
50126,203947
50137,204029
50148,204027
50157,204051
50167,204117
50176,204088
50186,204118
50197,204133
50206,204131
50217,204163
50226,204142
50237,204127
50246,204109
50257,204080
50268,204011
50277,203970
50287,203860
50298,203787
50308,203703
50317,203648
50327,203633
50337,203624
50347,203593
50357,203577
50368,203556
50409,203468
50458,202723
50468,202300
50511,202176
50518,202214
50527,202180
50537,202131
50587,201874
50598,201839
50607,201807
50618,201796
50628,201820
50637,201801
50647,201794
50658,201792
50668,201799
50677,201875
50687,201949
50698,201996
50708,202061
50717,202162
50728,202222
50737,202302
50747,202318
50758,202295
50767,202332
50778,202342
50787,202350
50798,202382
50807,202385
50818,202391
50827,202376
50838,202386
50847,202407
50858,202399
50867,202392
50878,202379
50887,202289
50898,202197
50907,201892
50918,201792
50927,201814
50938,201842
50989,202243
50997,202476
51008,202608
51017,202666
51062,202767
51070,202963
51109,202996
51112,202332
51119,203059
51129,203085
51169,202376
51212,203569
51219,203714
51267,203921
51277,203929
51288,203949
51297,203898
51307,203853
51318,203808
51327,203727
51338,203605
51389,203117
51398,203064
51409,203019
51418,202958
51428,202944
51438,202893
51448,202860
51458,202832
51469,202763
51478,202711
51488,202664
51498,202649
51509,202609
51518,202574
51528,202548
51538,202515
51549,202493
51558,202477
51568,202454
51578,202423
51589,202403
51598,202362
51608,202343
51618,202303
51629,202271
51638,202258
51648,202237
51658,202234
51669,202196
51678,202194
51688,202164
51698,202142
51709,202107
51718,202099
51728,202070
51738,202041
51812,201970
51814,202763
51819,201894
51828,201848
51838,201841
51880,201742
51922,201583
51928,201611
51938,201604
51949,201589
51958,201555
51969,201527
51978,201497
51989,201500
51998,201463
52008,201429
52018,201432
52029,201419
52038,201414
52048,201373
52058,201370
52069,201355
52078,201347
52089,201348
52098,201308
52109,201300
52118,201224
52128,201129
52138,201092
52182,200953
52189,200919
52198,200838
52209,200855
52219,200831
52229,200817
52239,200817
52249,200782
52259,200753
52299,200680
52308,200606
52319,200646
52328,200563
52338,200533
52349,200580
52358,200505
52368,200496
52380,200484
52389,200474
52398,200433
52409,200412
52418,200374
52461,200321
52470,200285
52509,200220
52519,200191
52560,200171
52569,200124
52610,200158
52619,200147
52629,200150
52639,200150
52649,200132
52660,200113
52669,200090
52679,200090
52689,200051
52700,200013
52709,199994
52720,199976
52729,199954
52739,199928
52750,199919
52759,199918
52769,199927
52779,199938
52789,199936
52800,199922
52809,199910
52819,199896
52829,199885
52839,199863
52849,199894
52860,199865
52869,199908
52879,199857
52889,199891
52900,199872
52909,199888
52920,199891
52929,199943
52939,199905
52983,199827
52990,199869
52999,199847
53009,199875
53019,199848
53029,199865
53040,199893
53050,199901
53059,199865
53111,199894
53120,199888
53163,199927
53171,199933
53219,199878
53230,199934
53240,199942
53249,199919
53259,199910
53270,199939
53280,199974
53289,199915
53299,199924
53309,199935
53320,199979
53329,199950
53339,199951
53385,199966
53390,199944
53399,199946
53409,199953
53419,199964
53429,199993
53440,200010
53449,199961
53460,199997
53470,199994
53479,199973
53490,200002
53499,199987
53510,199994
53521,199999
53530,200007
53541,200016
53550,200010
53561,200035
53570,200036
53580,200047
53591,200034
53600,200010
53610,200048
53620,200039
53630,200052
53641,200042
53650,200062
53660,200048
53670,200058
53681,200053
53690,200033
53701,200003
53710,199991
53721,199959
53762,199832
53772,199779
53821,199831
53865,199753
53872,199812
53880,199814
53923,200010
53931,199790
53940,199795
53950,199796
53960,199780
53970,199798
53981,199804
53990,199778
54001,199796
54010,199779
54020,199781
54031,199813
54040,199804
54050,199801
54060,199786
54070,199791
54081,199808
54090,199805
54100,199797
54111,199826
54120,199840
54130,199826
54140,199798
54184,199797
54191,199851
54201,199873
54210,199826
54220,199856
54230,199859
54240,199870
54250,199853
54260,199870
54271,199909
54280,199905
54290,199906
54300,199898
54310,199897
54321,199962
54330,199930
54341,199973
54350,199904
54360,199944
54371,199979
54380,199957
54390,199944
54401,199986
54410,199965
54421,200003
54430,199976
54472,200044
54480,200013
54491,200054
54541,200045
54551,200070
54592,200000
54601,199969
54611,199950
54621,199949
54632,199954
54641,199943
54651,199961
54662,199949
54671,199960
54682,199952
54731,199974
54741,199954
54752,199938
54761,199924
54772,199940
54781,199956
54791,200006
54801,200030
54812,200074
54821,200083
54831,200074
54842,200053
54851,200061
54861,200079
54871,200084
54882,200097
54891,200107
54902,200130
54911,200146
54921,200189
54931,200215
54941,200210
54951,200242
54961,200238
54971,200249
54982,200296
54991,200375
55001,200341
55012,200386
55021,200388
55031,200387
55042,200405
55085,200489
55091,200524
55101,200527
55143,200542
55145,200030
55151,200595
55162,200637
55203,200646
55212,200657
55221,200678
55264,200691
55313,200733
55361,200687
55372,200738
55381,200697
55391,200661
55401,200651
55411,200656
55422,200680
55431,200612
55441,200591
55451,200585
55461,200612
55505,200648
55511,200633
55521,200642
55531,200654
55541,200648
55551,200647
55561,200631
55572,200668
55581,200624
55591,200639
55602,200667
55611,200659
55622,200632
55632,200649
55641,200613
55652,200605
55662,200584
55671,200590
55682,200630
55691,200630
55702,200615
55712,200603
55722,200575
55733,200561
55742,200532
55752,200556
55762,200545
55773,200556
55782,200568
55792,200591
55802,200616
55813,200634
55822,200662
55832,200677
55843,200704
55892,200759
55937,200634
55945,200671
55955,200644
56043,200657
56092,200668
56103,200693
56112,200702
56122,200680
56133,200714
56142,200756
56153,200800
56162,200849
56172,200894
56183,200945
56192,201012
56202,201089
56213,201132
56222,201136
56232,201115
56242,201126
56293,201014
56302,200983
56312,200979
56322,200943
56333,200933
56342,200885
56352,200867
56363,200870
56372,200835
56382,200793
56393,200850
56402,200800
56412,200772
56422,200760
56432,200746
56443,200746
56452,200723
56462,200716
56473,200727
56482,200679
56492,200647
56503,200666
56512,200605
56522,200593
56533,200597
56542,200559
56552,200558
56562,200544
56573,200535
56582,200511
56714,200600
56722,200583
56733,200621
56742,200612
56753,200679
56763,200711
56773,200766
56783,200777
56793,200829
56804,200862
56846,200967
56852,200977
56862,200970
56872,200916
56883,200891
56893,200813
56904,200773
56913,200693
56925,200670
56934,200618
56943,200591
56953,200576
56964,200574
57004,200574
57013,200628
57023,200627
57033,200644
57043,200664
57054,200671
57063,200666
57074,200669
57083,200657
57094,200673
57103,200681
57114,200692
57123,200685
57134,200707
57176,200855
57183,200907
57193,200924
57203,200926
57214,200938
57223,200932
57234,200922
57243,200952
57253,200991
57264,200965
57273,201025
57284,201018
57293,201037
57304,201027
57313,201040
57324,201036
57333,201046
57344,201017
57353,200993
57364,200944
57373,200880
57383,200839
57394,200794
57403,200785
57414,200782
57423,200753
57434,200783
57443,200750
57488,200755
57495,200792
57504,200822
57513,200789
57556,200798
57563,200805
57605,200890
57655,200924
57663,200893
57674,200980
57683,201001
57693,201059
57703,201080
57714,201134
57723,201116
57733,201100
57743,201073
57753,201078
57763,201057
57773,201030
57783,201006
57793,201009
57804,201061
57813,201073
57823,201120
57834,201183
57875,201268
57885,201236
57893,201239
57905,201230
57914,201229
57925,201222
57934,201194
57945,201183
57954,201179
57965,201162
57974,201143
57985,201121
57995,201123
58004,201049
58014,201060
58024,201035
58034,201029
58045,201034
58054,201045
58065,201047
58074,201089
58085,201087
58094,201099
58105,201125
58114,201146
58125,201170
58134,201181
58144,201191
58155,201183
58203,201139
58245,201149
58254,201172
58295,201126
58305,201136
58350,201220
58356,201211
58366,201200
58374,201227
58384,201228
58394,201260
58405,201265
58414,201300
58425,201301
58434,201284
58445,201317
58454,201324
58465,201344
58474,201360
58485,201386
58494,201380
58505,201390
58514,201397
58525,201420
58534,201413
58544,201407
58555,201414
58564,201418
58574,201384
58585,201382
58594,201331
58604,201308
58614,201286
58624,201260
58635,201291
58680,201248
58685,201220
58695,201261
58704,201277
58715,201291
58724,201262
58734,201277
58744,201268
58755,201311
58764,201281
58774,201314
58785,201395
58794,201393
58805,201439
58814,201436
58824,201424
58835,201490
58844,201456
58854,201446
58864,201488
58910,201614
58949,201668
58957,201660
58966,201600
59006,201603
59008,201569
59017,201554
59028,201583
59035,201594
59045,201607
59055,201623
59096,201603
59098,201277
59105,201605
59115,201629
59125,201671
59135,201650
59145,201680
59155,201644
59165,201637
59175,201636
59185,201622
59195,201592
59205,201584
59215,201597
59225,201588
59235,201583
59245,201602
59255,201588
59265,201596
59275,201579
59285,201582
59295,201573
59305,201540
59315,201519
59325,201501
59335,201493
59345,201467
59355,201441
59365,201442
59375,201418
59385,201391
59395,201355
59405,201333
59415,201311
59425,201227
59435,201195
59478,201644
59486,200987
59496,200999
59505,200979
59515,200994
59525,200980
59569,201072
59575,201115
59618,201275
59626,201278
59675,201451
59717,201466
59726,201452
59775,201427
59785,201402
59795,201425
59805,201435
59815,201412
59825,201466
59835,201439
59845,201470
59855,201511
59865,201512
59875,201521
59927,201429
59935,201400
59945,201398
59955,201412
59965,201466
59975,201530
59985,201546
59995,201597
60005,201693
60015,201764
60025,201771
60035,201780
60045,201739
60055,201711
60065,201678
60075,201646
60087,201651
60096,201658
60106,201622
60116,201591
60126,201525
60136,201502
60146,201471
60156,201424
60166,201373
60176,201285
60186,201191
60196,201111
60206,201023
60216,200929
60226,200829
60237,200687
60277,200199
60320,199921
60327,199885
60336,199804
60377,199603
60419,199387
60426,199377
60436,199323
60446,199291
60456,199247
60466,199185
60476,199149
60487,199128
60496,199117
60506,199082
60516,199057
60526,199029
60536,199042
60546,199003
60556,198995
60566,198962
60576,198950
60586,198938
60596,198915
60606,198904
60616,198889
60626,198869
60636,198857
60680,198812
60687,198792
60697,198782
60706,198774
60716,198810
60726,198789
60736,198788
60746,198797
60756,198768
60766,198767
60776,198751
60786,198752
60796,198750
60806,198761
60816,198740
60826,198751
60836,198738
60846,198751
60856,198727
60866,198717
60876,198749
60886,198726
60896,198742
60906,198754
60916,198728
60958,198739
60968,198739
61007,198719
61017,198710
61062,198499
61066,198450
61076,198424
61086,198395
61097,198384
61106,198324
61117,198348
61127,198324
61136,198318
61148,198342
61157,198355
61167,198392
61219,198591
61226,198643
61237,198640
61248,198668
61257,198690
61268,198697
61278,198727
61287,198728
61297,198719
61307,198732
61317,198714
61359,198744
61361,198710
61369,198881
61378,198931
61388,198995
61397,199050
61408,199092
61417,199135
61428,199186
61438,199239
61448,199269
61457,199334
61467,199419
61477,199542
61488,199649
61497,199764
61508,199917
61518,200054
61528,200183
61537,200317
61548,200446
61558,200613
61568,200758
61608,200963
61610,198668
61617,201983
61629,202260
61637,202531
61648,202805
61658,202978
61668,203285
61678,203491
61688,203679
61697,203791
61708,203845
61718,203934
61728,203930
61738,204033
61747,204083
61758,204225
61768,204451
61777,204426
61788,204518
61798,204626
61808,204909
61817,205280
61828,205890
61870,207669
61878,207877
61922,208213
61930,208268
61982,206973
61989,206962
62033,206812
62038,206771
62048,206734
62057,206656
62067,206620
62078,206678
62088,206703
62097,206740
62108,206821
62118,206903
62128,206867
62138,206897
62147,206850
62158,206757
62168,206729
62177,206684
62187,206731
62197,206825
62207,206946
62218,206968
62228,206950
62269,206980
62272,208268
62280,206856
62287,206784
62297,206622
62309,206547
62319,206438
62328,206297
62338,206160
62349,206124
62359,206108
62369,206119
62378,206146
62389,206234
62399,206396
62409,206609
62418,206891
62429,207205
62439,207381
62449,207540
62458,207608
62469,207664
62479,207670
62489,207660
62498,207594
62509,207467
62519,207346
62529,207295
62538,207291
62583,207298
62589,207407
62597,207522
62650,207844
62699,208142
62740,208150
62743,206396
62749,208206
62760,208162
62768,208106
62778,208009
62789,207913
62799,207800
62809,207683
62818,207618
62829,207552
62839,207525
62848,207554
62858,207600
62869,207709
62879,207846
62889,207966
62898,208115
62909,208188
62919,207817
62929,206582
62939,206396
62948,206142
62959,206251
62969,206125
62978,206110
62989,206135
62999,206113
63009,206256
63018,206563
63029,207005
63040,207447
63079,207615
63090,207476
63098,207268
63109,207158
63119,206979
63129,206772
63138,206506
63149,206322
63159,206074
63169,206236
63178,206317
63189,206434
63199,206421
63209,206420
63218,206356
63229,206331
63239,206241
63249,206060
63258,205885
63301,205861
63302,205968
63311,206239
63320,206351
63328,206543
63375,206885
63381,206907
63389,206945
63433,206787
63441,206742
63450,206700
63458,206614
63469,206581
63479,206574
63522,206846
63529,206900
63541,207039
63550,207155
63560,207323
63570,207464
63579,207633
63589,207814
63599,207978
63609,208089
63620,208191
63630,208305
63640,208435
63650,208578
63660,208702
63670,208864
63679,209015
63689,209212
63700,209382
63710,209583
63720,209715
63730,209842
63739,209973
63749,210127
63759,210276
63769,210448
63780,210604
63790,210748
63800,210853
63810,211017
63820,211145
63830,211248
63872,211294
63880,211729
63891,211823
63899,211920
63910,212024
63920,212105
63930,212188
63940,212273
63949,212363
63991,212494
64002,212872
64010,212848
64051,212877
64091,212821
64099,212852
64182,213122
64184,211294
64190,213132
64199,213179
64250,213224
64260,213211
64270,213217
64280,213207
64290,213205
64342,213200
64350,213194
64359,213207
64369,213199
64381,213150
64389,213136
64400,213093
64410,213029
64420,213017
64430,212999
64440,213000
64450,212982
64461,212996
64470,212991
64480,212978
64490,212978
64501,212974
64510,212991
64520,212999
64530,212999
64540,213035
64551,213032
64561,213026
64571,213051
64580,213061
64590,213086
64600,213079
64610,213087
64621,213095
64631,213105
64675,213071
64677,213179
64681,213132
64689,213171
64702,213192
64710,213247
64720,213235
64730,213240
64740,213244
64750,213285
64791,213381
64840,213357
64883,213389
64891,213352
64900,213318
64911,213302
64921,213287
64931,213252
64941,213308
64950,213339
64960,213393
64970,213458
64981,213496
64990,213496
65000,213329
65010,213365
65021,213406
65031,213425
65042,213430
65081,213455
65092,213483
65102,213436
65110,213442
65120,213458
65130,213588
65140,213630
65150,213631
65160,213680
65170,213698
65181,213744
65191,213699
65201,213638
65210,213519
65221,213246
65231,213101
65241,213007
65251,212762
65260,212302
65270,212178
65280,211999
65290,211881
65300,211624
65310,211279
65320,211069
65330,210908
65340,210785
65351,210766
65361,210770
65371,210782
65380,210804
65422,211318
65501,211892
65503,213680
65512,211997
65522,211991
65532,211953
65572,211952
65581,212108
65592,212377
65601,212685
65611,212901
65621,213019
65632,212958
65640,212851
65651,212716
65661,212664
65671,212631
65681,212613
65724,213051
65732,213217
65741,213276
65751,213246
65761,213252
65771,213256
65781,213268
65791,213305
65801,213351
65811,213399
65821,213441
65832,213446
65841,213447
65882,213826
65892,213939
65903,213977
65911,213991
65921,213983
65931,214020
65941,214028
65951,214051
65962,214157
65971,214284
65982,214417
65991,214516
66001,214533
66011,214567
66022,214621
66031,214629
66041,214658
66051,214632
66062,214662
66071,214703
66081,214755
66091,214781
66102,214874
66111,214922
66121,214916
66131,214930
66141,215034
66151,215131
66161,215206
66171,215288
66182,215419
66191,215493
66201,215569
66211,215616
66221,215709
66231,215781
66271,215845
66283,216007
66292,216072
66301,216092
66311,216142
66321,216140
66331,216169
66382,216257
66424,216349
66433,216405
66475,216385
66483,216439
66492,216534
66502,216635
66512,216754
66522,216864
66532,216936
66542,217003
66552,216978
66562,216941
66572,216937
66582,216938
66592,216943
66602,216957
66612,216944
66622,216950
66632,216929
66683,217000
66692,217012
66702,217052
66712,217047
66722,217052
66732,217054
66743,217064
66752,217044
66762,217039
66772,217008
66782,217009
66792,216981
66802,216987
66812,217008
66822,217064
66832,217066
66842,217097
66852,217064
66862,217009
66872,216972
66882,216902
66892,216831
66902,216752
66912,216721
66922,216700
66932,216663
66942,216639
66952,216578
66962,216576
66972,216552
66983,216542
67033,216578
67077,216535
67083,216551
67122,216425
67133,216447
67175,216456
67177,216268
67184,216300
67192,216222
67203,216113
67212,216075
67223,216054
67232,215962
67242,216008
67252,216031
67263,216062
67272,216062
67282,216068
67292,216064
67303,216110
67312,216092
67322,216126
67332,216169
67342,216209
67353,216259
67362,216268
67372,216262
67383,216315
67392,216302
67402,216274
67412,216257
67423,216327
67432,216362
67483,216377
67494,216437
67503,216411
67512,216410
67522,216423
67533,216444
67542,216340
67552,216250
67562,216093
67572,215951
67583,215796
67593,215676
67603,215567
67613,215471
67622,215389
67632,215332
67642,215314
67653,215296
67663,215240
67673,215209
67683,215238
67693,215301
67735,215459
67738,215746
67745,215436
67787,215200
67789,216327
67794,215386
67804,215093
67813,214998
67855,215161
67864,215062
67944,216250
67954,213557
67963,213391
67974,213241
67983,213078
67993,212780
68003,212608
68013,212439
68023,212346
68033,212397
68043,212389
68053,212285
68063,212195
68073,212132
68083,212029
68093,212010
68103,211957
68113,211952
68123,211960
68133,211897
68143,211726
68153,211743
68163,211807
68173,211723
68183,211678
68193,211690
68203,212187
68213,212598
68223,212759
68233,212800
68284,212763
68294,212739
68303,212762
68313,212715
68323,212681
68333,212622
68343,212482
68353,212397
68363,212339
68373,212369
68383,212432
68393,212507
68403,212384
68413,212256
68423,211955
68433,211470
68443,211062
68453,210417
68463,209806
68504,207556
68514,207026
68565,205947
68574,206123
68615,206032
68657,204546
68664,204432
68707,204068
68714,204045
68725,204034
68734,203993
68744,203962
68755,203970
68765,203946
68774,203954
68784,203964
68795,203985
68804,204034
68814,204057
68824,204129
68835,204272
68844,204387
68854,204487
68864,204564
68875,204659
68884,204782
68894,204926
68904,205042
68915,205132
68924,205185
68934,205200
68944,205249
68955,205259
68964,205247
68974,205198
68984,205118
68995,205070
69004,205010
69014,205017
69024,205023
69035,205019
69079,205132
69084,205070
69094,205041
69104,205066
69114,205046
69125,205038
69134,205091
69145,205141
69154,205210
69205,205409
69245,205453
69255,205746
69300,206671
69304,206809
69315,206788
69324,206587
69334,206692
69344,207034
69355,207295
69364,207502
69374,207635
69384,207691
69395,207835
69404,207903
69414,207918
69424,207984
69435,208083
69485,208518
69494,208541
69504,208623
69514,208745
69524,208891
69534,209004
69544,209021
69554,209015
69564,208995
69574,208966
69584,209004
69594,209052
69604,209188
69614,209346
69624,209511
69634,209703
69644,209950
69654,210244
69664,210537
69674,210836
69684,211133
69694,211378
69704,211584
69714,211713
69724,211772
69734,211843
69744,211837
69754,211835
69764,211771
69776,211669
69784,211604
69796,211669
69845,211129
69885,211038
69895,211154
69907,211056
69956,211659
69965,211749
70006,211844
70016,211813
70025,211810
70036,211826
70045,211797
70056,211820
70065,211907
70076,211934
70085,211986
70096,212109
70105,212285
70116,212460
70125,212660
70136,212820
70146,212959
70156,213322
70165,213453
70176,213517
70185,213591
70196,213609
70206,213594
70215,213637
70225,213719
70236,213685
70288,213292
70296,213299
70305,213314
70315,213315
70326,213322
70335,213391
70346,213399
70356,213424
70365,213444
70375,213480
70386,213503
70396,213566
70438,213744
70446,213847
70455,213897
70466,213859
70476,213928
70486,213933
70496,213989
70506,214014
70516,214009
70525,214041
70536,214112
70547,214157
70555,214029
70565,214136
70607,214193
70615,214175
70625,214170
70669,214161
70671,213322
70677,214154
70688,214216
70729,214165
70731,213444
70736,214163
70747,214187
70755,214153
70766,214164
70816,214198
70825,214228
70837,214199
70846,214225
70855,214179
70866,214164
70876,214173
70887,214184
70896,214192
70907,214206
70916,214232
70926,214219
70936,214236
70946,214240
70956,214260
70966,214272
70976,214277
70987,214231
70996,214115
71006,213975
71016,213858
71027,213712
71036,213567
71080,212747
71087,212596
71097,212493
71107,212422
71117,212380
71126,212372
71136,212395
71147,212455
71156,212495
71166,212524
71176,212526
71187,212523
71196,212513
71206,212565
71216,212568
71226,212573
71236,212583
71247,212571
71288,212681
71296,212641
71307,212637
71349,212672
71357,212668
71367,212613
71408,212534
71419,212537
71427,212554
71436,212527
71446,212461
71456,212443
71507,212381
71517,212379
71527,212370
71536,212384
71547,212443
71556,212456
71567,212464
71576,212396
71586,212417
71596,212419
71607,212432
71616,212380
71627,212386
71636,212349
71646,212333
71656,212310
71667,212270
71676,212221
71686,212202
71696,212224
71707,212235
71716,212166
71726,212172
71736,212192
71746,212143
71756,212096
71766,212039
71777,212070
71786,212018
71796,212032
71807,212060
71816,212006
71827,212067
71836,212026
71889,212118
71897,212098
71907,212229
71917,212254
71968,212142
71979,212158
72019,212164
72060,212128
72068,212149
72119,212130
72161,212196
72167,212264
72208,212251
72211,212043
72217,212214
72227,212201
72237,212202
72248,212160
72257,212155
72267,212136
72310,212214
72317,212184
72328,212211
72338,212198
72347,212213
72357,212199
72367,212173
72378,212174
72388,212197
72397,212273
72407,212252
72418,212270
72428,212228
72437,212182
72447,212079
72458,212045
72468,211985
72477,211967
72487,211935
72498,211948
72508,211949
72517,211939
72527,211927
72538,211982
72547,212000
72557,212028
72567,212013
72578,212053
72588,212073
72597,212069
72607,212063
72618,212103
72628,212087
72637,212066
72682,212092
72690,212139
72697,212084
72707,212101
72788,212150
72791,212079
72798,212163
72837,212082
72847,212057
72858,212081
72867,212016
72878,212015
72887,211926
72897,211917
72908,211910
72917,211943
72927,211961
72938,211958
72947,211908
72958,211877
72967,211880
72977,211880
72988,211879
72998,211862
73009,211854
73018,211856
73028,211868
73039,211859
73081,211909
73088,211945
73098,211915
73108,211924
73118,211948
73128,211949
73138,211913
73149,211917
73158,211920
73168,211898
73179,211883
73188,211866
73199,211837
73208,211852
73219,211911
73228,211907
73239,211866
73248,211823
73259,211805
73268,211782
73279,211730
73288,211717
73299,211779
73308,211790
73319,211818
73328,211775
73339,211794
73431,211767
73471,211769
73473,211949
73481,211854
73520,211940
73529,211907
73540,211862
73548,211847
73558,211852
73568,211861
73578,211889
73589,211931
73598,211909
73608,211928
73618,211882
73628,211876
73639,211900
73648,211887
73658,211901
73669,211953
73678,211930
73688,211941
73698,211937
73708,211954
73719,211998
73728,212012
73739,212016
73748,212012
73758,212002
73768,212011
73778,211971
73788,211995
73798,211930
73809,211967
73818,211905
73828,211876
73838,211910
73883,211893
73889,211934
73899,211960
73909,211932
73918,211936
73929,211943
73938,211920
73948,211897
73958,211904
73969,211900
73978,211847
73988,211840
73999,211857
74008,211853
74019,211875
74028,211892
74072,211851
74108,211804
74119,211568
74171,211494
74180,211517
74189,211567
74200,211601
74209,211601
74219,211609
74229,211617
74240,211616
74249,211593
74259,211553
74270,211550
74321,211530
74329,211534
74339,211550
74350,211527
74359,211506
74369,211498
74379,211496
74389,211522
74400,211502
74409,211455
74419,211462
74430,211478
74439,211452
74450,211467
74459,211439
74469,211439
74480,211432
74490,211446
74499,211485
74509,211485
74520,211498
74529,211534
74539,211516
74549,211529
74559,211570
74569,211582
74579,211598
74589,211614
74600,211594
74609,211592
74619,211574
74629,211550
74640,211529
74683,211389
74690,211376
74728,211340
74730,211522
74740,211303
74750,211316
74760,211357
74770,211391
74780,211393
74790,211428
74800,211470
74810,211478
74820,211490
74830,211488
74871,211486
74880,211531
74890,211540
74900,211534
74910,211548
74919,211547
74929,211494
74940,211587
74950,211563
74960,211559
74969,211489
74980,211490
75021,211389
75030,211553
75040,211565
75080,211572
75119,211450
75133,211528
75141,211515
75151,211506
75159,211546
75171,211565
75180,211565
75191,211541
75200,211564
75211,211584
75220,211598
75230,211603
75241,211603
75250,211601
75261,211593
75270,211579
75280,211544
75291,211555
75300,211541
75310,211549
75321,211537
75330,211568
75341,211565
75350,211600
75361,211581
75370,211551
75381,211534
75390,211528
75400,211541
75411,211554
75420,211542
75430,211559
75441,211550
75483,211543
75490,211528
75500,211543
75510,211527
75520,211537
75530,211540
75541,211531
75550,211515
75561,211517
75570,211519
75581,211502
75590,211526
75600,211509
75611,211519
75620,211551
75630,211559
75641,211560
75691,211306
75742,211185
75753,211172
75792,211171
75801,211215
75812,211242
75820,211285
75830,211263
75841,211305
75850,211283
75895,211266
75897,211515
75901,211269
75910,211250
75921,211262
75930,211259
75940,211253
75950,211204
75961,211245
75970,211228
75980,211207
75990,211181
76001,211210
76010,211138
76021,211163
76030,211101
76040,211131
76051,211166
76060,211150
76070,211170
76081,211216
76090,211177
76101,211216
76110,211181
76120,211171
76131,211193
76140,211167
76150,211158
76160,211206
76171,211219
76180,211218
76190,211197
76201,211216
76210,211209
76221,211215
76230,211193
76241,211231
76282,211251
76291,211262
76300,211270
76312,211265
76352,211245
76362,211269
76406,211263
76412,211281
76502,211222
76512,211174
76551,211101
76561,211021
76572,210972
76581,210911
76591,210862
76602,210815
76611,210802
76622,210792
76631,210794
76642,210758
76651,210774
76695,210807
76701,210864
76712,210861
76722,210915
76731,210879
76742,210855
76751,210835
76761,210825
76772,210828
76781,210839
76792,210856
76801,210877
76811,210881
76822,210903
76831,210918
76842,210917
76852,210900
76861,210902
76872,210887
76881,210864
76892,210874
76901,210841
76911,210830
76922,210861
76931,210833
76941,210841
76951,210847
76961,210872
76972,210900
76981,210866
76991,210878
77002,210905
77011,210890
77021,210895
77031,210900
77042,210921
77086,210887
77093,210864
77135,210871
77138,210856
77143,210872
77154,210949
77163,210909
77205,210902
77211,210878
77253,210957
77262,210972
77271,210955
77282,210942
77292,210951
77301,210960
77312,210972
77321,210969
77332,210964
77343,210980
77353,210970
77362,210993
77372,210979
77383,210993
77392,210989
77403,210978
77412,210967
77423,210938
77432,210882
77443,210826
77484,210643
77492,210630
77504,210620
77512,210648
77523,210642
77532,210633
77543,210646
77552,210627
77562,210640
77573,210629
77582,210668
77592,210691
77603,210708
77612,210721
77623,210693
77632,210699
77643,210708
77652,210687
77663,210710
77672,210687
77683,210715
77692,210710
77703,210720
77712,210728
77722,210731
77733,210709
77742,210716
77752,210747
77803,210747
77813,210756
77856,210633
77895,210771
77902,210731
77913,210758
77957,210774
77963,210761
77972,210776
77983,210785
77993,210787
78002,210763
78013,210817
78022,210795
78032,210797
78043,210763
78052,210727
78063,210713
78072,210675
78083,210660
78092,210605
78103,210617
78112,210556
78123,210593
78132,210537
78143,210597
78153,210594
78163,210624
78172,210585
78183,210636
78192,210595
78203,210669
78212,210616
78223,210617
78232,210562
78243,210609
78285,210574
78293,210578
78303,210554
78313,210589
78322,210636
78333,210627
78343,210679
78352,210652
78363,210699
78373,210733
78383,210795
78393,210861
78403,210896
78413,210969
78423,210970
78433,210984
78443,210954
78453,210967
78463,211016
78515,211153
78525,211228
78576,211633
78582,211710
78635,211910
78643,211887
78653,211832
78663,211803
78703,211761
78706,210699
78715,211587
78724,211572
78735,211537
78743,211502
78753,211468
78763,211406
78773,211364
78783,211346
78793,211302
78803,211268
78813,211205
78823,211169
78833,211072
78843,210973
78853,210934
78863,210892
78873,210858
78883,210832
78893,210833
78903,210840
78913,210850
78923,210890
78933,210919
78943,210944
78953,210999
78963,211028
78973,211108
78983,211164
78993,211256
79003,211311
79013,211371
79023,211450
79033,211502
79043,211562
79084,211795
79094,211763
79145,211351
79194,211232
79204,211240
79248,211236
79255,211310
79264,211322
79273,211357
79283,211394
79293,211405
79304,211449
79314,211525
79323,211496
79333,211512
79343,211532
79353,211557
79363,211550
79403,211587
79414,211617
79424,211564
79434,211518
79444,211497
79455,211496
79463,211462
79475,211444
79484,211406
79495,211359
79504,211281
79545,211239
79548,211240
79588,211055
79591,211288
79594,210611
79606,210543
79616,210485
79625,210418
79635,210473
79645,210474
79654,210452
79664,210416
79675,210343
79685,210329
79694,210259
79704,210250
79715,210202
79725,210170
79734,210136
79745,210205
79754,210166
79765,210155
79774,210127
79784,210103
79794,210112
79804,210092
79814,210105
79824,210076
79834,210025
79844,209989
79886,209863
79894,209837
79905,209817
79914,209848
79924,209813
79934,209808
79944,209811
79954,209776
79964,209758
79974,209749
79984,209727
79994,209698
80004,209651
80014,209659
80024,209665
80034,209680
80044,209715
80054,209773
80064,209829
80074,209884
80084,209943
80094,209966
80104,209983
80114,210007
80160,210043
80165,210047
80175,210034
80227,210228
80236,210235
80276,210318
80287,210464
80297,210503
80365,209659
80367,210567
80375,210571
80384,210580
80394,210616
80404,210598
80414,210596
80424,210623
80434,210616
80444,210617
80454,210651
80464,210656
80474,210640
80484,210657
80494,210650
80505,210684
80514,210689
80524,210716
80534,210718
80545,210737
80554,210718
80566,210708
80576,210719
80585,210749
80596,210765
80606,210777
80616,210767
80625,210776
80636,210796
80679,210812
80686,210770
80695,210804
80705,210800
80715,210800
80726,210797
80736,210809
80745,210813
80756,210796
80766,210795
80776,210783
80785,210799
80796,210778
80806,210788
80816,210798
80825,210786
80836,210761
80846,210724
80856,210688
80865,210630
80914,210472
80926,210499
80967,210478
81015,210467
81026,210447
81076,210400
81154,210367
81167,210326
81175,210369
81185,210335
81195,210364
81206,210351
81216,210356
81225,210345
81235,210323
81246,210344
81256,210351
81265,210322
81276,210323
81286,210337
81296,210339
81305,210317
81316,210323
81326,210329
81336,210330
81346,210350
81355,210296
81366,210301
81376,210311
81385,210251
81396,210236
81406,210216
81416,210167
81425,210113
81436,210099
81446,210080
81486,210018
81496,210014
81505,210000
81516,210039
81526,210049
81536,210023
81545,209976
81556,210012
81566,209979
81576,209970
81585,209978
81596,209960
81606,209969
81616,209975
81625,209979
81636,209970
81646,209966
81656,209959
81667,209950
81708,209932
81758,209896
81805,209884
81816,209898
81827,209896
81836,209880
81846,209897
81856,209901
81897,209904
81907,209896
81916,209894
81926,209884
81937,209868
81946,209883
81956,209877
81966,209879
81976,209873
81987,209872
81997,209857
82007,209849
82016,209859
82027,209859
82037,209855
82047,209870
82056,209846
82066,209877
82076,209878
82086,209871
82096,209876
82107,209875
82117,209872
82127,209865
82137,209879
82146,209873
82156,209858
82166,209866
82176,209865
82187,209885
82197,209906
82207,209901
82216,209884
82226,209841
82236,209885
82278,209931
82286,209885
82297,209911
82336,209921
82339,209857
82347,209899
82390,209913
82396,209865
82439,209858
82446,209816
82456,209757
82466,209705
82476,209675
82486,209597
82496,209575
82507,209615
82517,209600
82527,209569
82537,209574
82546,209523
82556,209501
82566,209535
82576,209523
82586,209534
82596,209504
82606,209491
82616,209487
82627,209505
82670,209486
82672,209921
82677,209436
82687,209463
82697,209461
82707,209464
82717,209472
82728,209461
82737,209462
82747,209468
82757,209463
82767,209447
82778,209452
82788,209449
82798,209463
82808,209454
82817,209465
82827,209471
82837,209482
82847,209493
82858,209490
82868,209502
82878,209513
82888,209559
82897,209597
82907,209640
82917,209702
82927,209760
82937,209811
82947,209883
82987,210143
83028,210375
83037,210429
83080,210528
83119,210746
83128,210761
83137,210783
83148,210811
83157,210854
83167,210875
83177,210901
83187,210939
83198,210997
83208,211077
83217,211132
83227,211191
83237,211227
83247,211245
83258,211305
83268,211342
83278,211414
83288,211461
83297,211557
83307,211600
83317,211667
83327,211726
83337,211811
83348,211862
83358,211888
83368,211905
83377,211878
83387,211862
83397,211854
83407,211881
83418,211923
83428,211922
83468,211926
83479,211911
83487,211847
83497,211793
83507,211797
83517,211768
83527,211727
83538,211792
83547,211755
83557,211760
83567,211793
83578,211846
83588,211845
83598,211867
83608,211870
83617,211827
83627,211839
83667,211859
83678,211915
83720,211882
83727,211816
83740,211679
83780,210846
83791,210626
83798,210469
83808,210352
83818,210281
83828,210185
83838,210086
83848,210001
83858,209982
83868,209897
83878,209843
83888,209741
83898,209682
83949,209546
83958,209545
83968,209585
83980,209602
83989,209601
83998,209596
84008,209650
84019,209674
84029,209738
84038,209765
84049,209820
84099,209906
84108,209898
84118,209885
84128,209901
84138,209924
84148,209907
84158,209934
84168,209954
84178,209945
84188,209984
84198,209993
84208,209960
84219,209950
84228,209960
84238,209993
84248,209985
84259,209959
84268,209985
84278,209952
84288,209975
84299,209964
84350,209910
84359,209952
84368,209986
84379,210010
84388,210056
84398,210051
84408,210066
84419,210130
84428,210145
84438,210129
84448,210145
84459,210180
84468,210146
84478,210118
84488,210126
84499,210156
84508,210139
84518,210113
84528,210105
84538,210109
84548,210126
84600,209998
84650,210041
84659,210179
84734,210056
84739,210174
84750,210204
84793,210389
84799,210476
84842,210540
84845,210118
84849,210689
84859,210719
84868,210759
84878,210776
84888,210803
84899,210825
84909,210827
84919,210819
84929,210835
84939,210810
84949,210807
84959,210825
84969,210806
84979,210825
84989,210833
84999,210812
85009,210824
85020,210801
85029,210786
85080,210714
85089,210607
85099,210488
85109,210370
85119,210319
85129,210321
85139,210355
85149,210358
85159,210373
85169,210350
85179,210330
85189,210266
85199,210221
85209,210187
85219,210149
85229,210097
85239,210072
85249,210076
85259,210063
85269,210068
85279,210082
85289,210086
85299,210062
85309,210129
85319,210146
85329,210131
85339,210131
85349,210145
85390,210133
85400,210070
85445,210208
85531,210362
85540,210563
85549,210476
85560,210142
85569,210269
85580,210246
85589,210154
85599,210236
85609,210087
85620,209966
85629,209705
85639,209293
85649,209872
85660,210812
85669,210632
85679,210461
85689,210392
85700,210325
85709,210194
85719,210071
85729,210013
85739,209903
85749,209771
85759,209742
85769,209685
85779,209646
85789,209535
85799,209471
85809,209424
85820,209455
85829,209428
85870,209499
85872,210362
85879,209693
85890,209689
85900,209666
85910,209673
85919,209640
85929,209657
85940,209639
85950,209625
85960,209578
85970,209535
85979,209529
85989,209539
85999,209529
86009,209496
86020,209535
86030,209552
86080,209666
86090,209665
86130,209517
86172,209427
86181,209393
86190,209350
86200,209311
86210,209274
86220,209269
86230,209247
86240,209268
86250,209281
86261,209303
86270,209311
86280,209306
86323,209529
86331,209395
86340,209536
86350,209773
86360,210055
86370,210331
86380,210588
86390,210789
86400,210937
86410,211138
86420,211361
86430,211579
86440,211766
86450,211954
86460,212063
86470,212273
86480,212443
86490,212619
86500,212798
86510,212955
86520,213086
86530,213256
86540,213429
86550,213614
86560,213729
86570,213838
86581,213964
86590,214119
86600,214286
86610,214316
86620,214189
86630,213995
86682,212686
86724,212158
86732,212108
86741,212036
86784,212119
86791,212240
86843,211766
86850,211530
86860,211350
86870,211186
86880,211065
86890,210988
86900,210903
86910,210881
86920,210890
86930,210890
86941,210947
86950,211030
86960,211062
86970,211100
86981,211157
86990,211163
87000,211133
87010,211137
87020,211181
87030,211205
87081,211454
87090,211532
87101,211623
87110,211676
87120,211785
87131,211880
87140,211889
87150,211860
87162,211828
87171,211833
87181,211919
87192,211912
87201,211908
87212,211973
87222,212103
87231,212147
87242,212102
87251,212026
87261,212033
87272,212043
87281,212072
87292,212116
87301,212197
87312,212203
87321,212204
87332,212194
87341,212178
87394,212189
87404,212178
87453,212103
87503,212061
87542,212039
87544,211908
87552,212053
87561,211963
87573,212037
87581,212048
87592,212086
87601,212122
87611,212139
87621,212163
87632,212180
87641,212192
87652,212218
87661,212233
87672,212216
87681,212185
87692,212138
87701,212066
87712,212017
87721,211970
87731,211930
87741,211862
87751,211867
87761,211849
87771,211830
87782,211824
87791,211815
87801,211804
87811,211790
87821,211783
87831,211747
87883,211736
87891,211735
87901,211727
87911,211731
87921,211741
87931,211717
87941,211715
87951,211709
87961,211693
87971,211685
87981,211689
87991,211670
88001,211659
88011,211612
88021,211629
88031,211599
88041,211595
88051,211602
88061,211600
88112,211698
88122,211641
88132,211652
88175,211762
88184,211737
88223,211734
88225,211736
88232,211546
88244,211467
88252,211355
88262,211257
88272,211120
88312,210548
88322,210580
88332,210523
88343,210493
88353,210427
88362,210406
88372,210428
88382,210456
88393,210421
88403,210373
88412,210384
88462,210342
88472,210308
88482,210286
88494,210355
88503,210373
88512,210395
88522,210364
88532,210411
88544,210402
88553,210401
88563,210420
88574,210456
88583,210497
88592,210519
88603,210592
88612,210615
88623,210662
88633,210733
88642,210830
88653,210864
88662,210871
88673,210759
88682,210689
88693,210608
88702,210611
88713,210567
88722,210514
88733,210457
88823,210628
88867,210788
88869,210364
88872,211466
88884,211596
88934,212436
88943,212598
88984,213315
89026,213884
89034,214041
89042,214234
89086,214987
89093,214852
89102,215231
89113,215178
89122,215331
89173,217264
89182,217288
89192,217361
89203,217480
89212,217451
89222,217483
89232,217410
89243,217345
89252,217314
89262,217338
89273,217365
89282,217323
89293,217269
89303,217177
89313,217086
89322,217031
89333,217034
89342,217068
89353,217136
89364,217185
89373,217135
89383,217124
89393,217058
89404,216918
89414,216764
89424,216653
89433,216549
89483,216078
89493,216144
89504,216543
89513,216611
89523,216652
89534,216746
89544,216820
89553,216836
89563,216879
89574,216892
89584,216825
89627,216301
89673,215712
89723,215201
89733,215195
89743,215192
89753,215245
89763,215217
89774,215176
89784,215097
89793,215068
89804,215001
89813,214985
89823,214981
89833,214950
89883,214915
89893,214879
89903,214874
89913,214862
89924,214881
89933,214868
89943,214882
89953,214838
89964,214888
89973,214856
89984,214857
89994,214848
90003,214816
90013,214734
90024,214743
90033,214691
90043,214612
90054,214600
90063,214575
90073,214549
90084,214533
90093,214447
90103,214428
90113,214350
90124,214357
90133,214288
90143,214172
90153,214132
90164,214122
90173,214001
90183,213944
90193,213885
90204,213860
90213,213811
90304,213499
90314,213445
90365,213204
90414,213131
90424,213144
90435,213119
90444,213113
90454,213089
90464,213082
90474,213065
90485,213037
90494,213018
90505,213008
90514,212986
90524,212963
90534,212938
90544,212923
90554,212905
90564,212884
90574,212873
90585,212852
90594,212836
90604,212824
90614,212802
90625,212774
90634,212758
90684,212724
90694,212744
90704,212722
90714,212688
90724,212645
90734,212627
90745,212596
90754,212527
90764,212503
90774,212474
90785,212408
90794,212395
90804,212374
90814,212334
90825,212316
90834,212320
90844,212315
90854,212292
90865,212284
90874,212290
90884,212243
90894,212278
90905,212198
90914,212145
90955,212027
90999,212102
91005,212084
91014,212125
91055,212127
91065,212098
91107,212107
91115,212030
91124,212027
91134,212042
91144,212031
91155,212044
91164,212038
91174,212019
91184,212032
91194,212000
91205,212027
91214,212013
91225,212041
91234,212009
91244,211984
91254,212031
91265,212057
91274,211989
91284,211996
91294,212001
91305,212035
91314,212000
91324,211981
91334,211986
91344,211990
91354,211973
91364,211991
91375,212014
91384,211965
91394,212002
91405,212019
91414,211994
91425,212012
91434,212006
91486,212021
91495,212022
91505,212012
91515,212027
91526,212033
91535,212017
91545,212021
91556,212040
91565,212037
91611,212013
91615,212022
91656,212064
91667,212084
91710,212033
91715,212053
91725,211994
91735,211967
91745,211931
91755,211891
91766,211872
91775,211846
91785,211828
91796,211809
91805,211801
91815,211794
91826,211793
91835,211782
91878,212040
91885,211729
91895,211712
91905,211713
91915,211685
91926,211656
91935,211670
91945,211629
91955,211653
91966,211649
91975,211648
91985,211646
91996,211623
92005,211624
92015,211617
92026,211606
92035,211612
92045,211587
92055,211583
92065,211554
92076,211571
92085,211540
92095,211546
92106,211532
92115,211549
92125,211518
92135,211541
92145,211537
92155,211537
92165,211553
92175,211539
92185,211538
92195,211548
92205,211544
92216,211560
92225,211556
92296,211518
92298,211653
92305,211496
92352,211566
92357,211538
92367,211491
92411,211574
92417,211555
92428,211615
92435,211569
92446,211597
92455,211554
92466,211583
92475,211530
92485,211524
92495,211502
92505,211525
92516,211535
92525,211476
92535,211504
92545,211512
92556,211490
92565,211436
92576,211429
92586,211387
92595,211340
92605,211301
92616,211284
92626,211233
92637,211241
92686,211202
92697,211206
92707,211180
92716,211173
92726,211175
92736,211180
92747,211159
92756,211132
92766,211110
92776,211116
92786,211078
92797,211066
92806,211061
92816,211059
92826,211065
92837,211067
92846,211044
92857,211050
92866,211034
92877,211040
92886,211029
92897,211004
92906,211016
92917,211020
92926,211021
92971,210957
92978,211008
92986,211019
92996,210998
93006,211018
93016,210991
93026,211018
93037,211028
93047,210992
93057,211005
93068,210992
93076,211030
93086,211047
93127,211018
93135,211033
93147,211015
93156,211038
93166,211023
93177,211047
93186,211049
93196,211069
93207,211096
93217,211087
93226,211073
93269,211063
93317,211106
93327,211097
93369,211094
93408,211113
93410,210992
93418,211154
93428,211148
93468,211192
93476,211134
93486,211131
93497,211113
93506,211047
93517,211045
93526,210982
93537,210986
93546,210915
93557,210924
93566,210878
93618,210822
93627,210784
93636,210763
93646,210753
93657,210747
93667,210738
93676,210745
93687,210711
93696,210689
93706,210686
93717,210683
93728,210695
93737,210679
93748,210690
93757,210667
93767,210694
93778,210682
93787,210678
93797,210647
93808,210646
93817,210636
93827,210626
93838,210614
93886,210606
93898,210590
93907,210590
93917,210591
93927,210587
93938,210584
93947,210566
93957,210593
93968,210584
94008,210593
94017,210571
94060,210563
94107,210604
94117,210581
94128,210602
94137,210592
94148,210581
94157,210612
94167,210569
94177,210579
94187,210568
94198,210585
94207,210599
94217,210596
94227,210574
94238,210591
94280,210605
94287,210598
94298,210605
94307,210640
94317,210613
94328,210650
94337,210616
94348,210651
94357,210657
94367,210656
94378,210653
94387,210620
94397,210593
94408,210569
94417,210500
94427,210506
94438,210493
94447,210452
94457,210438
94467,210421
94478,210450
94487,210400
94497,210421
94507,210395
94518,210421
94527,210401
94538,210431
94547,210374
94557,210373
94568,210394
94577,210346
94587,210380
94598,210380
94607,210353
94650,210367
94658,210377
94700,210380
94708,210334
94749,210364
94759,210372
94802,210385
94808,210408
94818,210382
94827,210387
94837,210403
94848,210408
94858,210412
94869,210411
94878,210416
94889,210415
94898,210402
94909,210382
94918,210370
94929,210347
94938,210320
94948,210310
94959,210287
94968,210276
94978,210257
94988,210229
94999,210215
95008,210205
95018,210209
95028,210207
95039,210204
95081,210215
95088,210208
95099,210200
95108,210220
95119,210227
95128,210235
95138,210249
95149,210241
95158,210235
95168,210227
95178,210246
95189,210247
95198,210226
95209,210244
95218,210237
95229,210237
95238,210241
95248,210236
95258,210245
95268,210237
95279,210264
95288,210282
95299,210300
95308,210293
95350,210315
95360,210306
95410,210365
95449,210389
95451,210220
95459,210416
95509,210422
95519,210442
95529,210414
95538,210445
95548,210469
95559,210514
95568,210482
95579,210518
95588,210499
95598,210492
95609,210551
95618,210533
95628,210532
95639,210577
95648,210577
95659,210600
95668,210590
95678,210592
95689,210629
95698,210608
95708,210605
95719,210650
95728,210619
95739,210676
95748,210659
95758,210663
95769,210718
95778,210648
95788,210679
95798,210695
95809,210728
95818,210710
95828,210696
95838,210728
95883,210807
95888,210811
95898,210786
95909,210827
95918,210820
95928,210852
95939,210835
95949,210830
95958,210803
95969,210786
95980,210753
95989,210710
96000,210698
96009,210660
96054,210626
96063,210590
96070,210581
96079,210603
96122,210590
96132,210577
96180,210528
96191,210551
96199,210534
96210,210519
96219,210527
96229,210528
96240,210515
96249,210521
96260,210536
96269,210507
96320,210519
96330,210512
96339,210488
96349,210480
96360,210492
96370,210479
96379,210502
96390,210460
96399,210521
96409,210493
96420,210484
96429,210518
96440,210498
96449,210507
96460,210503
96469,210525
96480,210539
96489,210524
96500,210512
96509,210542
96520,210530
96529,210564
96540,210539
96549,210545
96559,210549
96570,210543
96579,210525
96590,210561
96599,210543
96610,210569
96619,210547
96630,210593
96639,210607
96682,210707
96690,210713
96740,210651
96750,210636
96760,210637
96810,210647
96821,210639
96869,210615
96912,210596
96914,210543
96920,210451
96929,210341
96940,210334
96949,210263
96960,210265
96969,210211
96980,210232
96989,210159
97000,210189
97009,210162
97019,210174
97030,210166
97039,210143
97083,210110
97090,210105
97099,210068
97110,210095
97120,210076
97130,210088
97140,210077
97150,210094
97160,210081
97170,210060
97180,210066
97190,210044
97200,210044
97210,210039
97220,210004
97230,210009
97240,210013
97251,209978
97260,209981
97271,209980
97280,209979
97291,209967
97300,209971
97311,209966
97320,209976
97331,209944
97340,209940
97350,209973
97361,209951
97370,209947
97380,209947
97391,209946
97400,209909
97411,209892
97420,209890
97463,209780
97471,209764
97516,209661
97520,209600
97531,209624
97541,209584
97551,209596
97561,209594
97571,209576
97580,209602
97591,209572
97600,209566
97610,209581
97620,209559
97670,209575
97681,209560
97691,209601
97700,209585
97710,209573
97722,209594
97730,209558
97740,209594
97750,209578
97761,209564
97770,209593
97781,209568
97824,209591
97830,209589
97842,209599
97931,209650
97940,209638
97992,209638
98001,209631
98010,209611
98020,209614
98031,209673
98040,209611
98051,209658
98060,209598
98071,209649
98080,209584
98091,209633
98100,209600
98110,209613
98121,209634
98130,209623
98140,209628
98150,209648
98161,209675
98170,209657
98180,209687
98191,209698
98200,209696
98211,209701
98221,209710
98231,209728
98241,209735
98287,209735
98292,209778
98300,209791
98311,209815
98321,209805
98331,209830
98341,209837
98351,209871
98361,209881
98371,209872
98381,209888
98391,209907
98401,209903
98411,209921
98421,209919
98431,209941
98473,209858
98482,209812
98571,209662
98614,209635
98622,209583
98631,209579
98641,209575
98651,209571
98661,209570
98671,209551
98681,209551
98691,209538
98701,209540
98711,209534
98762,209515
98771,209504
98781,209496
98791,209492
98801,209502
98811,209516
98821,209500
98831,209498
98841,209509
98851,209487
98861,209504
98871,209509
98881,209502
98891,209524
98901,209525
98911,209538
98921,209532
98931,209544
98941,209530
98951,209522
98961,209556
98971,209581
98981,209581
98991,209601
99001,209603
99011,209583
99021,209611
99031,209605
99041,209618
99083,209635
99093,209661
99101,209641
99111,209644
99162,209659
99202,209634
99211,209657
99253,209707
99261,209710
99272,209717
99281,209714
99291,209721
99302,209730
99312,209737
99322,209708
99332,209679
99342,209647
99352,209605
99362,209585
99372,209533
99382,209491
99392,209484
99402,209451
99412,209433
99422,209404
99432,209391
99442,209395
99483,209341
99493,209329
99502,209344
99512,209310
99522,209303
99532,209277
99542,209281
99552,209278
99562,209260
99572,209245
99582,209245
99592,209253
99602,209241
99612,209240
99622,209215
99632,209211
99642,209202
99652,209180
99662,209169
99672,209157
99682,209135
99692,209167
99702,209152
99712,209115
99722,209120
99732,209146
99742,209150
99752,209124
99762,209131
99806,209341
99848,209128
99855,209112
99897,209165
99903,209162
99914,209184
99965,209211
99973,209174
99982,209204
99992,209221
100002,209218
100012,209207
100022,209206
100032,209223
100042,209229
100052,209229
100062,209235
100072,209249
100082,209256
100092,209261
100102,209263
100112,209267
100122,209268
100132,209289
100143,209263
100152,209268
100162,209300
100172,209262
100182,209258
100192,209244
100202,209191
100212,209159
100222,209115
100232,209090
100242,209062
100283,209036
100294,209078
100303,209052
100313,209068
100322,209061
100332,209068
100342,209083
100353,209087
100363,209078
100374,209071
100383,209098
100393,209091
100404,209092
100414,209098
100423,209121
100433,209119
100444,209106
100454,209107
100463,209104
100504,209098
100506,209300
100515,209106
100557,209055
100564,209104
100572,209116
100618,209091
100624,209151
100634,209118
100643,209151
100653,209161
100705,209180
100715,209190
100723,209186
100734,209186
100743,209201
100754,209209
100764,209195
100774,209212
100783,209222
100794,209202
100804,209223
100814,209219
100823,209257
100833,209259
100844,209260
100854,209259
100863,209277
100874,209278
100884,209298
100894,209291
100903,209301
100914,209305
100924,209306
100934,209327
100943,209321
100953,209335
100964,209363
100974,209332
100983,209312
100994,209314
101004,209263
101014,209232
101023,209204
101034,209162
101043,209131
101088,209195
101095,209074
101104,209062
101113,209061
101123,209038
101174,208991
101183,209010
101223,209049
101234,208998
101276,209046
101326,208992
101365,208957
101373,208985
101383,208999
101393,208997
101403,208990
101413,208979
101423,209010
101433,209010
101443,209028
101453,209015
101464,209014
101474,209051
101516,209075
101526,209062
101535,209076
101545,209084
101555,209072
101565,209080
101573,209064
101584,209097
101594,209101
101605,209097
101614,209116
101624,209115
101635,209139
101645,209135
101654,209130
101664,209154
101675,209145
101685,209159
101694,209166
101704,209168
101715,209177
101725,209213
101734,209192
101744,209216
101755,209231
101765,209228
101774,209250
101784,209262
101795,209265
101805,209284
101814,209274
101824,209249
101835,209246
101877,209208
101879,209076
101885,209074
101929,209051
101931,209080
101934,208976
101945,208960
101954,209001
101995,208942
102004,208948
102014,208944
102024,208908
102035,208915
102044,208925
102054,208923
102064,208920
102074,208906
102084,208906
102095,208898
102105,208959
102115,208917
102155,208955
102165,208948
102174,208941
102186,208946
102194,208926
102204,208932
102215,208970
102225,208963
102235,208976
102244,208962
102254,208971
102265,208956
102307,209019
102315,208979
102359,208915
102366,209042
102374,209046
102385,209083
102395,209081
102405,209120
102414,209067
102424,209066
102435,209122
102444,209093
102454,209098
102464,209104
102475,209122
102485,209150
102494,209125
102504,209138
102515,209152
102525,209158
102535,209168
102545,209201
102554,209184
102565,209212
102574,209249
102584,209218
102595,209214
102605,209243
102616,209250
102625,209255
102635,209248
102677,209276
102679,209038
102688,209323
102697,209312
102705,209323
102715,209315
102725,209328
102735,209298
102745,209277
102755,209269
102765,209202
102775,209158
102786,209119
102796,209090
102806,209058
102816,209046
102825,209023
102835,209035
102845,208996
102855,209014
102866,208989
102907,208956
102916,208958
102966,208893
102975,208910
103017,208972
103026,208939
103036,208929
103046,208930
103056,208938
103065,208944
103117,208922
103126,208937
103135,208941
103145,208929
103156,208955
103166,208968
103176,208970
103185,208968
103195,208946
103205,208955
103215,208980
103226,209002
103236,209020
103246,209026
103256,209021
103265,209028
103275,209005
103285,209008
103295,209043
103306,209046
103316,209073
103326,209071
103336,209092
103346,209078
103355,209056
103365,209052
103375,209065
103386,209090
103396,209106
103406,209113
103416,209128
103425,209101
103435,209081
103446,209091
103486,209120
103497,209155
103506,209128
103515,209122
103559,209138
103568,209245
103577,209194
103628,209179
103635,209096
103679,208975
103688,208979
103696,208946
103706,208914
103716,208916
103726,208908
103736,208893
103746,208904
103757,208918
103766,208935
103776,208893
103787,208914
103796,208929
103806,208911
103816,208909
103827,208901
103836,208895
103878,208903
103880,209142
103887,208933
103897,208956
103906,208897
103917,208947
103927,208945
103936,208944
103946,208933
103956,208947
103966,208932
103976,208945
103987,208942
103997,208945
104007,208970
104016,208968
104026,208971
104036,208990
104046,208967
104056,208987
104067,208991
104077,208985
104087,208978
104096,208999
104106,209011
104116,209019
104126,209007
104136,209038
104146,209042
104156,209045
104166,209049
104176,209076
104186,209082
104239,209117
104247,209125
104298,208997
104340,208992
104348,208864
104358,208862
104367,208863
104410,208841
104416,208782
104426,208810
104437,208833
104447,208820
104456,208798
104467,208834
104477,208822
104487,208816
104496,208805
104506,208783
104516,208776
104526,208793
104536,208776
104546,208812
104556,208807
104566,208782
104576,208773
104586,208824
104596,208785
104606,208784
104616,208768
104627,208826
104637,208842
104689,208871
104697,208878
104708,208960
104716,208936
104727,208951
104736,208942
104746,208972
104756,208982
104766,208992
104776,209006
104787,209011
104797,209021
104807,209040
104818,209041
104827,209061
104837,209071
104847,209080
104857,209083
104868,209102
104877,209092
104887,209120
104898,209129
104907,209138
104917,209131
104927,209149
104971,209187
104978,209181
104987,209215
105029,209274
105037,209263
105129,209413
105168,209433
105170,209061
105178,209465
105189,209448
105228,209530
105237,209513
105248,209525
105257,209516
105267,209532
105277,209530
105287,209549
105298,209573
105307,209578
105317,209569
105327,209578
105337,209596
105348,209590
105357,209575
105367,209509
105378,209505
105387,209434
105397,209382
105407,209347
105417,209335
105427,209288
105437,209280
105489,209188
105498,209185
105508,209155
105517,209178
105527,209132
105537,209133
105547,209120
105558,209142
105568,209138
105577,209119
105588,209132
105597,209115
105607,209086
105618,209134
105627,209103
105637,209060
105647,209062
105658,209107
105667,209078
105677,209065
105687,209051
105698,209097
105707,209040
105717,209048
105727,209061
105772,209055
105781,209126
105789,209106
105797,209087
105842,209090
105889,209116
105899,209115
105938,209113
105949,209132
105958,209133
105968,209127
105978,209124
105989,209146
105998,209151
106008,209151
106018,209171
106028,209154
106038,209171
106048,209163
106058,209166
106068,209186
106078,209188
106088,209179
106098,209191
106108,209187
106118,209213
106128,209202
106138,209223
106148,209214
106159,209210
106168,209219
106178,209207
106189,209231
106198,209227
106208,209249
106219,209224
106228,209234
106238,209269
106290,209182
106298,209149
106309,209103
106318,209057
106328,209031
106338,209003
106348,208983
106358,208944
106368,208944
106379,208939
106388,208928
106398,208941
106408,208915
106419,208947
106429,208926
106438,208923
106482,208887
106489,208903
106499,208899
106539,208918
106582,208910
106590,208888
106632,208884
106639,208889
106648,208878
106658,208885
106668,208891
106679,208895
106688,208875
106699,208944
106709,208922
106718,208904
106728,208916
106773,208963
106779,208956
106789,208950
106798,208932
106808,208919
106819,208941
106828,208955
106839,209008
106849,209013
106858,208999
106868,208982
106879,209016
106923,208979
106929,209052
106940,209045
106949,209069
106959,209077
106969,209077
106979,209104
106989,209110
106999,209100
107009,209124
107019,209137
107029,209120
107039,209131
107050,209138
107059,209163
107069,209167
107079,209177
107089,209181
107099,209195
107109,209180
107119,209178
107129,209171
107139,209135
107184,208986
107190,208988
107200,208913
107209,208931
107219,208896
107229,208890
107239,208883
107249,208867
107259,208853
107269,208842
107279,208852
107289,208826
107300,208826
107309,208832
107319,208827
107329,208814
107339,208804
107349,208831
107359,208822
107369,208840
107380,208851
107465,208826
107473,208823
107480,208845
107531,208840
107539,208869
107591,208918
107602,208885
107610,208919
107619,208871
107629,208922
107639,208942
107650,208957
107659,208945
107669,208955
107679,208955
107689,208971
107699,208956
107709,208994
107719,208979
107729,208981
107739,208996
107749,208993
107759,209020
107769,209020
107779,209017
107789,209024
107799,209045
107809,209039
107820,209087
107829,209069
107880,209148
107889,209128
107899,209144
107910,209132
107920,209160
107929,209188
107939,209184
107949,209195
107961,209224
107970,209236
107980,209237
107991,209241
108000,209244
108011,209229
108020,209203
108031,209174
108040,209137
108051,209101
108060,209062
108071,209036
108080,208982
108091,208972
108100,208966
108144,208914
108151,208915
108190,208877
108202,208880
108240,208854
108243,208817
108251,208817
108262,208841
108311,208848
108321,208800
108332,208835
108341,208810
108350,208812
108360,208795
108370,208827
108380,208778
108390,208799
108400,208820
108410,208801
108420,208782
108430,208831
108440,208840
108450,208830
108460,208803
108470,208838
108480,208835
108490,208845
108500,208848
108510,208861
108520,208863
108530,208874
108541,208872
108550,208870
108560,208888
108570,208889
108581,208879
108590,208888
108600,208893
108610,208888
108620,208890
108630,208878
108682,208912
108694,208928
108700,208927
108710,208915
108721,208941
108730,208930
108740,208925
108750,208893
108760,208915
108770,208932
108780,208957
108790,208918
108800,208953
108810,208956
108820,208967
108872,209048
108912,208892
108921,208840
108964,208734
109004,208668
109010,208635
109062,208645
109071,208648
109082,208650
109091,208629
109132,208617
109142,208638
109152,208630
109163,208654
109171,208641
109181,208643
109192,208626
109201,208637
109212,208655
109221,208644
109232,208651
109242,208632
109251,208632
109261,208644
109272,208658
109281,208654
109292,208646
109301,208658
109312,208668
109321,208655
109332,208669
109342,208674
109351,208677
109362,208680
109371,208689
109381,208694
109392,208664
109401,208708
109412,208704
109421,208700
109432,208723
109482,208716
109492,208664
109502,208635
109512,208615
109521,208585
109531,208570
109541,208525
109552,208510
109594,208497
109672,208443
109682,208470
109692,208482
109701,208478
109712,208508
109721,208489
109732,208512
109741,208499
109751,208465
109762,208533
109771,208499
109781,208505
109791,208502
109802,208547
109811,208496
109821,208491
109832,208521
109883,208515
109894,208548
109901,208547
109912,208554
109921,208562
109932,208619
109941,208566
109952,208604
109961,208586
109971,208610
109981,208623
109992,208639
110001,208637
110012,208667
110022,208684
110032,208696
110041,208686
110052,208717
110062,208725
110072,208726
110083,208736
110092,208739
110103,208754
110112,208758
110122,208770
110133,208785
110142,208782
110152,208803
110162,208808
110173,208822
110182,208827
110225,208883
110314,208976
110324,208980
110333,209003
110342,209031
110383,209056
110393,209061
110403,209075
110412,209078
110422,209066
110432,209105
110443,209117
110452,209157
110462,209139
110472,209175
110482,209159
110492,209177
110502,209183
110512,209197
110523,209164
110532,209162
110543,209109
110552,209065
110563,209032
110572,209007
110582,208954
110593,208956
110602,208913
110613,208908
110622,208894
110633,208880
110675,208892
110683,208860
110696,208865
110703,208819
110712,208834
110722,208816
110733,208819
110742,208785
110753,208829
110763,208811
110772,208789
110782,208801
110793,208833
110802,208799
110813,208823
110822,208800
110833,208823
110843,208806
110852,208797
110862,208797
110873,208821
110882,208805
110927,208820
110935,208792
110944,208831
110994,208849
111046,208875
111095,208903
111104,208895
111112,208894
111123,208942
111132,208927
111142,208907
111152,208942
111163,208966
111173,208973
111183,208984
111192,208978
111202,208992
111212,209002
111253,209006
111263,209047
111273,209052
111284,209060
111294,209058
111304,209057
111314,209081
111324,209073
111334,209096
111343,208989
111353,209106
111363,209116
111373,209096
111384,209108
111393,209104
111403,209133
111414,209135
111424,209119
111433,209112
111443,209084
111453,209045
111463,209011
111473,208970
111484,208936
111493,208895
111503,208849
111513,208858
111524,208820
111533,208832
111579,208813
111581,208999
111584,209028
111593,208773
111668,209057
111674,208719
111685,208718
111694,208734
111738,208723
111745,208764
111754,208729
111796,208709
111804,208767
111813,208726
111823,208758
111833,208728
111844,208786
111853,208783
111863,208808
111873,208781
111884,208859
111893,208858
111944,208941
111954,209024
111963,209016
111973,209024
111983,209051
111993,209094
112003,209098
112014,209192
112024,209217
112033,209218
112043,209241
112054,209340
112064,209404
112073,209380
112084,209430
112093,209417
112103,209442
112113,209462
112123,209516
112134,209572
112143,209576
112154,209655
112163,209655
112173,209709
112184,209798
112193,209808
112203,209879
112213,209964
112224,210059
112233,210125
112278,210482
112284,210574
112293,210565
112305,210655
112313,210740
112355,210888
112365,210887
112414,211028
112425,211032
112466,211069
112474,211090
112485,211115
112494,211127
112504,211123
112514,211118
112524,211155
112534,211164
112544,211180
112554,211203
112565,211208
112574,211216
112584,211240
112595,211246
112604,211266
112615,211274
112624,211273
112635,211297
112685,211357
112695,211376
112704,211391
112715,211394
112724,211394
112734,211432
112744,211418
112754,211463
112765,211455
112774,211510
112784,211494
112795,211505
112804,211544
112814,211540
112825,211547
112834,211584
112844,211564
112854,211609
112865,211616
112874,211630
112884,211630
112894,211652
112905,211676
112914,211697
112924,211672
112934,211674
112945,211720
112954,211712
112964,211703
112974,211738
112985,211762
113035,211803
113046,211810
113088,211861
113137,211961
113147,211988
113156,212020
113199,212000
113237,211869
113245,211851
113288,211886
113290,211720
113296,211823
113304,211791
113315,211813
113324,211766
113334,211776
113344,211753
113355,211781
113364,211731
113374,211730
113384,211707
113394,211710
113405,211719
113414,211699
113425,211709
113434,211714
113486,211727
113494,211704
113504,211710
113515,211687
113525,211684
113535,211676
113546,211664
113555,211675
113565,211674
113576,211681
113585,211661
113596,211662
113605,211669
113615,211665
113626,211663
113635,211668
113645,211684
113655,211662
113665,211677
113676,211668
113685,211677
113696,211669
113705,211665
113716,211644
113725,211646
113735,211640
113745,211639
113755,211632
113766,211646
113775,211653
113785,211651
113795,211659
113838,211627
113847,211656
113896,211690
113935,211703
113946,211666
113988,211682
113995,211649
114005,211672
114016,211662
114025,211652
114035,211682
114045,211675
114055,211696
114065,211708
114076,211739
114086,211758
114095,211711
114105,211652
114116,211640
114125,211599
114135,211509
114145,211507
114155,211443
114165,211342
114175,211312
114185,211241
114196,211231
114205,211165
114215,211090
114226,211053
114235,210988
114278,210744
114287,210539
114296,210436
114305,210358
114315,210286
114326,210252
114335,210125
114345,210030
114356,210034
114365,209971
114375,209915
114386,209884
114395,209846
114405,209834
114415,209800
114425,209780
114435,209783
114445,209739
114456,209771
114465,209715
114476,209725
114485,209693
114537,209645
114547,209621
114555,209612
114598,209536
114605,209461
114649,209543
114658,209573
114706,209592
114717,209621
114726,209621
114736,209649
114746,209647
114757,209661
114766,209637
114777,209588
114786,209576
114796,209633
114807,209731
114816,209763
114826,209757
114837,209780
114846,209733
114857,209685
114866,209680
114877,209638
114886,209601
114897,209551
114906,209559
114917,209579
114926,209595
114937,209600
114946,209628
114957,209616
114966,209589
114977,209564
114986,209514
114997,209504
115006,209485
115017,209486
115026,209440
115037,209429
115086,209406
115096,209426
115107,209433
115116,209441
115126,209333
115136,209317
115146,209290
115157,209241
115202,209121
115209,209095
115251,209092
115258,209600
115298,209064
115308,209032
115357,209107
115369,209124
115376,209157
115386,209199
115397,209250
115406,209282
115417,209272
115426,209244
115437,209269
115446,209230
115457,209239
115467,209149
115508,209119
115517,209102
115527,209144
115536,209053
115546,208962
115557,208956
115566,208846
115576,208734
115586,208659
115597,208622
115606,208527
115617,208532
115626,208431
115637,208457
115646,208373
115657,208389
115666,208320
115677,208333
115686,208287
115697,208308
115706,208268
115717,208318
115726,208286
115737,208330
115747,208332
115756,208315
115767,208306
115776,208292
115786,208288
115797,208308
115806,208281
115817,208310
115826,208292
115836,208305
115881,208220
115887,208207
115898,208202
115907,208177
115917,208152
115927,208171
115937,208129
115947,208159
115957,208128
115967,208142
115977,208142
116019,208103
116028,208079
116038,208078
116047,208109
116057,208163
116067,208247
116077,208272
116089,208271
116097,208285
116107,208312
116117,208315
116168,208335
116220,208193
116227,208247
116272,208216
116277,208351
116289,208431
116298,208472
116307,208529
116318,208528
116327,208476
116337,208394
116347,208334
116358,208343
116367,208306
116419,208307
116427,208295
116438,208290
116447,208272
116457,208278
116467,208309
116478,208318
116488,208316
116497,208291
116507,208291
116518,208262
116527,208247
116537,208225
116547,208171
116558,208148
116567,208100
116577,208014
116588,207984
116597,207981
116607,207956
116618,207973
116627,207941
116637,207929
116680,207832
116689,207886
116697,207851
116708,207871
116717,207836
116728,207854
116737,207802
116747,207787
116758,207808
116767,207752
116777,207729
116787,207735
116831,207606
116880,207655
116891,207677
116958,207581
116968,207488
116978,207509
117018,207585
117028,207604
117039,207607
117048,207575
117059,207562
117068,207525
117108,207750
117118,207780
117128,207807
117139,207830
117149,207825
117158,207800
117168,207809
117178,207808
117188,207780
117199,207794
117208,207847
117219,207886
117228,207923
117238,207930
117249,207960
117258,207961
117268,207966
117278,207965
117289,207974
117298,207981
117308,207938
117319,207930
117328,207910
117339,207868
117349,207826
117358,207766
117368,207744
117378,207703
117389,207692
117398,207638
117408,207612
117418,207602
117428,207587
117439,207567
117479,207555
117489,207572
117499,207502
117508,207533
117549,207533
117551,207443
117558,207491
117599,207547
117639,207555
117648,207569
117659,207596
117668,207577
117678,207575
117689,207625
117698,207642
117708,207635
117719,207638
117728,207599
117739,207614
117749,207636
117758,207611
117769,207684
117778,207659
117788,207673
117798,207687
117809,207701
117818,207674
117828,207639
117839,207682
117879,207718
117889,207747
117898,207728
117909,207760
117918,207719
117928,207724
117938,207734
117948,207757
117959,207805
117968,207799
117979,207834
117988,207782
117999,207800
118008,207741
118018,207712
118028,207652
118039,207665
118048,207615
118059,207609
118068,207531
118078,207532
118089,207530
118098,207514
118108,207488
118118,207495
118129,207535
118138,207503
118181,207514
118218,207493
118221,207718
118230,207462
118312,207486
118320,207476
118329,207472
118339,207507
118349,207495
118360,207501
118369,207519
118380,207511
118389,207525
118400,207538
118409,207546
118420,207544
118429,207564
118440,207554
118449,207552
118459,207556
118470,207546
118479,207561
118490,207558
118499,207584
118510,207585
118519,207593
118530,207614
118539,207622
118549,207651
118560,207700
118569,207691
118580,207689
118589,207673
118600,207698
118609,207680
118620,207692
118629,207681
118640,207684
118681,207707
118689,207641
118699,207616
118709,207557
118720,207491
118729,207435
118740,207384
118749,207349
118760,207280
118769,207244
118780,207215
118789,207184
118800,207171
118809,207125
118820,207126
118863,207622
118870,206971
118911,206877
118961,206822
118970,206816
118979,206821
118989,206797
118999,206791
119010,206819
119019,206768
119029,206755
119040,206760
119049,206718
119059,206702
119100,206738
119102,207280
119111,206714
119119,206661
119129,206707
119139,206687
119149,206661
119160,206720
119169,206697
119180,206736
119189,206688
119199,206697
119210,206738
119219,206687
119229,206715
119240,206739
119249,206733
119259,206709
119269,206735
119280,206739
119289,206745
119299,206770
119309,206786
119320,206844
119329,206825
119339,206898
119349,206912
119359,206918
119370,206946
119379,206902
119389,206865
119400,206832
119409,206790
119420,206750
119429,206691
119440,206652
119511,206571
119513,206697
119522,206496
119531,206500
119581,206410
119592,206395
119642,206438
119652,206437
119660,206422
119670,206443
119680,206443
119691,206412
119700,206406
119711,206391
119720,206405
119730,206392
119740,206415
119750,206408
119761,206414
119770,206435
119780,206425
119791,206416
119800,206402
119811,206431
119820,206422
119831,206465
119840,206446
119883,206506
119890,206495
119900,206513
119910,206537
119921,206559
119930,206565
119940,206575
119951,206559
119960,206571
119971,206573
119980,206576
119991,206585
120000,206594
120011,206613
120020,206632
120030,206636
120041,206644
120050,206666
120060,206664
120071,206643
120080,206620
120091,206590
120100,206534
120111,206500
120120,206466
120131,206433
120140,206392
120150,206379
120202,206333
120210,206313
120251,206340
120261,206280
120304,206257
120310,206279
120320,206311
120330,206312
120342,206353
120350,206307
120360,206337
120371,206385
120380,206371
120390,206344
120400,206333
120444,206367
120450,206326
120461,206395
120471,206411
120480,206363
120490,206368
120500,206376
120511,206463
120520,206414
120530,206418
120540,206439
120551,206465
120562,206523
120606,206577
120611,206577
120622,206609
120664,206647
120671,206676
120681,206691
120691,206673
120701,206714
120711,206727
120721,206766
120731,206753
120741,206762
120751,206773
120760,206777
120803,206836
120813,206843
120821,206778
120831,206754
120841,206700
120851,206674
120862,206634
120871,206614
120881,206589
120891,206577
120901,206567
120911,206566
120921,206572
120931,206571
120941,206563
120951,206563
120961,206562
120971,206583
120981,206558
120991,206583
121001,206565
121011,206580
121021,206578
121031,206583
121041,206588
121083,206623
121092,206611
121101,206600
121111,206607
121122,206610
121131,206646
121142,206607
121151,206613
121162,206613
121204,206649
121212,206683
121262,206732
121273,206729
121314,206775
121355,206822
121361,206846
121371,206878
121381,206884
121391,206898
121402,206913
121411,206895
121422,206924
121431,206915
121442,206933
121451,206911
121462,206919
121471,206902
121515,206967
121523,206964
121531,207009
121542,207011
121551,207031
121562,207045
121571,207026
121582,207041
121591,206993
121602,206983
121611,206890
121622,206911
121631,206855
121642,206839
121651,206811
121662,206820
121671,206778
121682,206807
121691,206771
121702,206815
121711,206779
121722,206827
121731,206782
121741,206775
121751,206768
121762,206809
121771,206770
121781,206764
121791,206780
121802,206829
121811,206806
121822,206845
121831,206848
121842,206877
121887,206891
121933,206909
121942,206800
121993,206930
122001,206930
122052,206966
122062,206982
122072,206990
122082,206991
122092,207015
122102,207001
122112,207016
122122,207046
122132,207042
122143,207047
122152,207055
122162,207061
122172,207064
122182,207071
122192,207070
122202,207092
122212,207102
122222,207087
122232,207116
122242,207124
122286,207099
122293,207173
122303,207168
122312,207187
122322,207165
122332,207128
122342,207135
122352,207127
122362,207065
122372,207014
122382,207006
122392,206971
122402,206942
122412,206927
122422,206942
122432,206934
122442,206941
122452,206934
122462,206940
122472,206922
122482,206962
122492,206935
122502,206941
122512,206938
122522,206941
122532,206935
122543,206951
122594,206976
122603,206976
122653,206994
122693,207001
122702,206989
122743,207017
122754,207024
122762,207061
122772,207061
122782,207098
122793,207135
122802,207107
122812,207144
122822,207136
122832,207116
122842,207132
122852,207092
122862,207074
122872,207036
122882,207023
122892,206984
122902,206984
122912,206957
122922,206963
122932,206957
122943,206961
122952,206951
122962,206954
122972,206964
122982,206972
122992,206971
123002,206981
123012,206982
123022,206987
123032,207027
123042,207004
123083,207066
123092,207061
123102,207066
123114,207062
123124,207058
123134,207088
123142,207112
123154,207088
123164,207090
123174,207083
123183,207082
123193,207112
123203,207093
123213,207099
123223,207106
123233,207129
123243,207152
123253,207162
123303,207181
123314,207247
123323,207232
123374,207314
123384,207292
123435,207318
123444,207410
123453,207332
123463,207367
123473,207354
123525,207409
123534,207423
123543,207417
123553,207420
123563,207441
123573,207435
123583,207463
123593,207459
123603,207470
123613,207496
123623,207500
123633,207514
123643,207498
123653,207511
123663,207518
123673,207524
123683,207542
123693,207524
123703,207541
123713,207558
123723,207572
123733,207571
123743,207581
123753,207588
123763,207602
123773,207591
123783,207558
123793,207496
123803,207466
123813,207410
123823,207361
123833,207308
123843,207267
123884,207240
123894,207301
123903,207298
123913,207276
123923,207286
123933,207301
123943,207307
123986,207321
123994,207288
124084,207369
124094,207372
124145,207391
124188,207375
124190,207267
124193,207384
124203,207407
124213,207383
124223,207414
124233,207430
124243,207448
124293,207469
124303,207488
124314,207519
124323,207527
124334,207531
124344,207558
124354,207544
124365,207570
124374,207569
124384,207568
124395,207614
124404,207604
124414,207611
124424,207601
124435,207611
124445,207628
124454,207627
124464,207639
124475,207640
124485,207661
124494,207666
124504,207687
124515,207697
124525,207712
124534,207718
124545,207726
124554,207739
124565,207721
124574,207721
124584,207691
124595,207654
124605,207626
124614,207593
124624,207565
124635,207528
124646,207512
124684,207537
124728,207547
124731,207568
124735,207552
124786,207539
124795,207548
124834,207606
124844,207562
124855,207541
124864,207574
124874,207577
124884,207581
124894,207570
124904,207570
124915,207587
124924,207567
124935,207568
124977,207584
124985,207603
124995,207569
125004,207591
125014,207603
125024,207616
125034,207603
125045,207640
125056,207647
125065,207668
125075,207640
125085,207627
125095,207661
125136,207689
125144,207684
125187,207733
125196,207747
125204,207711
125214,207764
125224,207774
125235,207812
125244,207756
125254,207794
125264,207810
125274,207796
125285,207848
125294,207834
125304,207806
125314,207816
125324,207811
125334,207834
125344,207825
125354,207831
125364,207826
125374,207810
125384,207773
125394,207739
125404,207673
125414,207655
125424,207649
125434,207623
125444,207617
125487,207612
125496,207626
125504,207614
125514,207634
125524,207625
125536,207631
125545,207640
125556,207642
125566,207654
125576,207646
125585,207632
125596,207631
125606,207651
125616,207661
125625,207660
125636,207653
125646,207655
125656,207664
125665,207661
125676,207665
125686,207663
125696,207654
125737,207646
125785,207653
125837,207677
125845,207710
125855,207708
125866,207720
125876,207727
125886,207739
125929,207627
125936,207600
125947,207581
125955,207532
125966,207521
125976,207508
125986,207497
125996,207506
126006,207503
126016,207517
126025,207530
126036,207524
126046,207502
126056,207520
126065,207545
126076,207535
126086,207533
126096,207539
126105,207539
126115,207557
126126,207549
126136,207588
126146,207575
126155,207598
126166,207594
126176,207599
126185,207593
126196,207600
126206,207620
126216,207611
126225,207597
126236,207616
126247,207608
126285,207597
126296,207616
126305,207622
126316,207650
126326,207673
126335,207675
126379,207689
126386,207689
126429,207794
126437,207743
126488,207794
126496,207795
126505,207768
126516,207797
126526,207811
126536,207824
126546,207846
126555,207785
126566,207837
126576,207856
126585,207816
126596,207865
126606,207835
126616,207862
126625,207830
126636,207878
126677,207883
126688,207928
126696,207892
126706,207944
126716,207952
126726,207938
126736,207941
126746,207963
126756,207972
126766,207972
126776,207991
126787,207995
126797,208001
126807,208014
126816,208001
126826,208020
126836,208039
126846,208048
126856,208047
126867,208029
126877,207968
126887,207932
126896,207886
126906,207839
126916,207810
126926,207783
126936,207755
126946,207753
126956,207742
126966,207741
126976,207743
126987,207762
127038,207744
127080,207775
127086,207735
127137,207803
127188,207837
127198,207782
127208,207775
127217,207764
127227,207790
127237,207788
127247,207791
127256,207796
127266,207794
127276,207805
127286,207795
127296,207822
127307,207850
127317,207843
127327,207861
127337,207824
127346,207866
127357,207887
127367,207855
127376,207873
127387,207890
127397,207912
127407,207912
127416,207908
127427,207939
127472,207939
127475,207781
127477,207803
127486,207913
127496,207945
127507,207978
127517,207973
127526,207956
127536,207954
127547,207986
127557,207983
127567,207984
127576,207970
127587,208002
127597,207999
127607,208011
127616,207970
127627,208057
127637,208020
127647,208023
127656,207998
127667,208045
127677,208030
127687,208026
127696,207946
127748,207811
127756,207789
127798,207789
127807,207810
127857,207805
127868,207805
127908,207787
127916,207812
127926,207841
127937,207833
127947,207838
127958,207852
127967,207855
127978,207884
127988,207877
127998,207881
128008,207876
128017,207860
128027,207857
128037,207872
128047,207874
128058,207874
128068,207885
128078,207871
128088,207896
128097,207871
128107,207899
128117,207917
128127,207911
128137,207928
128148,207915
128158,207932
128168,207919
128177,207936
128187,207970
128197,207969
128207,207970
128218,207976
128228,207989
128278,208048
128288,208068
128297,208058
128307,208090
128317,208114
128327,208135
128338,208132
128348,208142
128358,208155
128368,208178
128377,208219
128387,208221
128397,208237
128407,208229
128419,208264
128459,208290
128468,208309
128519,208174
128528,208144
128577,208046
128620,207977
128628,208019
128710,207970
128712,208178
128719,207973
128728,208025
128738,207989
128747,208032
128757,208009
128767,207995
128778,208036
128788,208030
128798,208028
128808,208020
128817,207965
128827,207947
128837,207967
128847,207957
128858,208022
128867,207961
128877,207976
128887,207965
128898,208020
128908,207990
128917,207971
128927,207978
128937,207971
128947,208000
128957,208014
128967,207999
128977,208014
128987,208019
128997,208030
129007,208031
129018,208044
129028,208063
129080,208076
129089,208076
129097,208056
129108,208085
129118,208067
129128,208077
129138,208096
129148,208082
129158,208095
129168,208102
129179,208129
129222,208092
129229,208126
129278,207931
129322,207873
129329,207887
129339,207880
129349,207906
129358,207899
129368,207909
129379,207909
129388,207929
129398,207918
129409,207938
129420,207910
129430,207909
129438,207924
129479,207943
129489,207913
129499,207949
129509,207934
129518,207956
129529,207942
129538,207952
129549,207937
129558,207939
129568,207930
129578,207931
129629,207940
129640,207920
129649,207983
129659,207971
129668,207979
129678,207982
129688,207980
129699,208027
129709,208041
129719,208057
129729,208069
129739,208072
129748,208080
129758,208053
129768,208077
129778,208098
129788,208114
129798,208091
129808,208082
129819,208131
129829,208142
129839,208131
129891,208140
129898,208183
129908,208181
129918,208204
129928,208214
129938,208230
129948,208263
129958,208270
129969,208320
129978,208284
129988,208249
129998,208189
130008,208172
130019,208185
130029,208165
130039,208137
130049,208134
130058,208103
130068,208099
130078,208119
130131,208191
130140,208146
130190,208141
130230,208106
130240,208109
130288,208079
130300,208100
130310,208124
130318,208083
130329,208086
130339,208071
130349,208055
130359,208075
130369,208062
130380,208057
130389,208044
130399,208062
130409,208048
130420,208049
130429,208062
130439,208068
130449,208086
130460,208085
130469,208107
130479,208123
130489,208113
130500,208116
130509,208115
130519,208145
130529,208127
130539,208135
130550,208127
130559,208143
130569,208159
130579,208167
130589,208147
130599,208160
130609,208174
130620,208178
130629,208190
130671,208221
130680,208238
130690,208259
130700,208265
130709,208284
130720,208281
130729,208276
130739,208301
130782,208209
130789,208189
130800,208147
130841,207975
130850,207946
130894,207919
130896,208127
130900,207921
130910,207959
130919,207962
130929,207947
130939,207965
130949,207965
130959,207923
130969,207933
130979,207930
130989,207881
130999,207873
131009,207887
131020,207953
131029,207922
131071,207959
131073,208284
131079,207958
131092,208000
131101,207933
131110,208006
131119,207974
131129,207950
131139,207943
131149,207993
131159,207965
131169,207951
131180,208018
131189,207953
131199,207974
131209,207966
131220,208036
131229,208037
131239,208031
131249,208019
131260,208088
131269,208050
131279,208062
131289,208049
131300,208098
131309,208059
131319,208068
131329,208054
131339,208067
131350,208090
131359,208083
131369,208081
131379,208095
131389,208091
131399,208108
131409,208120
131452,208193
131461,208202
131501,208190
131510,208194
131522,208179
131562,208248
131565,208036
131572,208266
131581,208296
131631,208148
131642,208092
131650,208074
131660,208060
131670,208034
131680,208032
131690,208017
131700,208019
131710,208036
131720,208032
131730,208012
131740,208009
131751,207984
131761,207989
131770,207978
131780,207968
131790,207976
131800,207975
131810,207962
131820,207966
131830,207966
131882,208087
131892,208071
131901,208075
131910,208044
131920,208078
131930,208091
131941,208050
131950,208058
131960,208093
131970,208097
131980,208097
131990,208106
132000,208118
132010,208125
132020,208112
132030,208123
132040,208127
132050,208140
132060,208168
132070,208173
132080,208188
132090,208201
132100,208200
132110,208230
132120,208205
132130,208224
132141,208262
132193,208311
132201,208281
132243,208380
132284,208385
132291,208397
132336,208397
132342,208442
132394,208477
132400,208444
132443,208488
132451,208445
132500,208284
132510,208246
132520,208265
132530,208250
132540,208194
132551,208245
132560,208223
132570,208253
132580,208247
132590,208253
132600,208258
132610,208258
132620,208269
132630,208174
132640,208153
132683,208192
132691,208226
132702,208232
132711,208219
132721,208208
132732,208213
132741,208202
132751,208214
132761,208189
132771,208221
132781,208226
132791,208192
132801,208218
132811,208214
132821,208210
132831,208215
132841,208217
132851,208205
132861,208216
132871,208234
132881,208218
132891,208239
132901,208237
132911,208250
132921,208273
132931,208259
132941,208279
132951,208263
132961,208281
132971,208266
132982,208276
132991,208277
133001,208288
133042,208269
133085,208329
133092,208328
133135,208397
133143,208348
133194,208366
133202,208413
133211,208406
133221,208411
133231,208434
133241,208440
133251,208451
133261,208454
133271,208493
133281,208484
133291,208469
133301,208435
133311,208413
133321,208378
133331,208344
133341,208290
133352,208315
133361,208293
133371,208290
133381,208294
133391,208325
133401,208318
133411,208333
133421,208336
133431,208365
133483,208346
133492,208378
133502,208378
133511,208390
133521,208394
133531,208372
133541,208389
133551,208404
133561,208393
133571,208365
133582,208418
133591,208388
133601,208378
133611,208357
133622,208393
133631,208359
133641,208355
133651,208363
133662,208404
133671,208341
133681,208353
133691,208356
133737,208376
133743,208427
133783,208431
133791,208453
133833,208474
133842,208466
133885,208393
133894,208503
133901,208485
133913,208497
133921,208506
133932,208508
133942,208501
133952,208547
133963,208528
133972,208577
133982,208584
133992,208571
134002,208593
134044,208524
134052,208549
134062,208512
134073,208449
134082,208460
134091,208371
134103,208356
134112,208339
134123,208325
134133,208315
134143,208326
134153,208321
134162,208313
134172,208338
134183,208345
134192,208352
134202,208376
134213,208372
134222,208355
134232,208347
134242,208373
134252,208368
134262,208379
134272,208405
134282,208396
134292,208431
134302,208407
134312,208421
134322,208418
134332,208436
134426,208442
134434,208423
134477,208464
134483,208478
134533,208561
134542,208558
134552,208582
134562,208612
134572,208644
134583,208672
134592,208658
134602,208658
134612,208696
134622,208686
134632,208688
134642,208698
134652,208713
134662,208718
134672,208781
134682,208776
134723,208763
134733,208808
134743,208794
134752,208820
134762,208812
134772,208806
134782,208817
134792,208792
134802,208772
134812,208736
134822,208703
134832,208618
134842,208590
134852,208561
134862,208550
134872,208535
134882,208520
134892,208518
134902,208530
134912,208525
134922,208524
134932,208530
134942,208529
134952,208520
134962,208518
134972,208524
134983,208541
134992,208520
135002,208523
135012,208527
135023,208552
135034,208561
135086,208563
135126,208540
135135,208545
135178,208562
135180,208618
135185,208569
135193,208597
135203,208581
135248,208592
135254,208619
135263,208681
135273,208612
135284,208605
135293,208618
135303,208623
135314,208619
135323,208648
135334,208651
135343,208628
135354,208648
135363,208653
135374,208669
135383,208673
135393,208665
135404,208697
135413,208657
135423,208662
135434,208675
135484,208717
135494,208706
135503,208758
135513,208735
135524,208770
135533,208754
135543,208756
135553,208785
135563,208787
135573,208788
135583,208780
135593,208802
135603,208783
135613,208718
135623,208706
135633,208673
135643,208636
135653,208603
135663,208600
135673,208581
135683,208560
135693,208567
135703,208560
135713,208565
135723,208563
135733,208593
135743,208541
135753,208572
135763,208571
135807,208543
135813,208562
135865,208586
135910,208592
135912,208787
135916,208556
135923,208559
135935,208555
135984,208601
135995,208616
136044,208613
136053,208584
136063,208594
136073,208597
136083,208611
136093,208618
136103,208637
136113,208588
136123,208597
136133,208640
136143,208641
136153,208655
136163,208665
136173,208661
136184,208700
136193,208683
136203,208700
136213,208698
136224,208731
136233,208721
136274,208724
136276,208722
136285,208757
136294,208784
136304,208736
136314,208771
136325,208755
136334,208757
136345,208754
136354,208725
136365,208736
136374,208748
136384,208743
136395,208743
136404,208749
136415,208746
136424,208737
136435,208706
136444,208652
136454,208616
136464,208561
136475,208552
136484,208524
136494,208528
136504,208492
136515,208501
136524,208510
136534,208503
136585,208549
136628,208550
136630,208757
136636,208543
136646,208545
136656,208520
136728,208736
136737,208551
136745,208518
136754,208569
136796,208570
136804,208576
136814,208588
136824,208603
136834,208613
136844,208642
136855,208643
136864,208659
136874,208684
136885,208697
136894,208714
136904,208720
136915,208723
136924,208715
136934,208704
136944,208684
136954,208672
136965,208675
136974,208650
136984,208643
136995,208641
137004,208623
137014,208610
137024,208612
137035,208610
137086,208591
137096,208645
137105,208627
137114,208641
137125,208642
137134,208643
137144,208608
137155,208665
137164,208642
137174,208638
137185,208690
137194,208644
137205,208674
137214,208629
137224,208640
137235,208665
137244,208624
137255,208654
137264,208651
137275,208667
137284,208650
137294,208646
137348,208612
137355,208713
137446,208785
137454,208778
137497,208801
137504,208798
137515,208795
137525,208825
137535,208831
137546,208832
137555,208847
137566,208851
137575,208849
137585,208856
137596,208862
137605,208868
137616,208878
137625,208895
137636,208889
137645,208887
137656,208905
137665,208915
137676,208919
137685,208930
137696,208922
137706,208954
137716,208959
137725,208960
137736,208974
137745,208987
137756,208971
137765,208991
137776,208999
137785,209000
137795,209019
137806,209004
137815,209026
137825,209017
137836,209059
137888,209048
137896,209112
137906,209078
137916,209056
137925,209035
137936,208988
137945,208951
137990,208947
137996,208962
138047,209080
138097,209188
138105,209194
138115,209182
138126,209200
138135,209246
138145,209273
138155,209308
138166,209371
138175,209397
138185,209457
138196,209474
138205,209485
138216,209513
138225,209519
138235,209514
138286,209591
138296,209577
138307,209728
138315,209723
138325,209730
138336,209772
138345,209762
138356,209808
138365,209780
138376,209855
138385,209842
138396,209897
138405,209884
138416,209938
138425,209913
138436,209962
138445,209920
138456,209980
138465,209981
138476,210007
138485,210007
138496,210052
138505,210027
138516,210066
138525,210069
138536,210114
138545,210096
138556,210145
138565,210139
138576,210163
138585,210151
138596,210162
138605,210134
138646,210168
138658,210213
138698,210284
138707,210221
138716,210210
138725,210211
138736,210207
138745,210176
138756,210149
138765,210135
138776,210118
138785,210120
138797,210090
138806,210117
138816,210123
138856,210185
138867,210175
138876,210168
138886,210183
138896,210141
138906,210133
138917,210149
138927,210114
138936,210119
138947,210119
138957,210104
138968,210116
138976,210083
139029,210099
139036,210035
139088,210030
139097,210026
139107,210024
139116,210018
139127,210013
139136,209990
139147,209979
139156,209960
139166,209977
139176,209922
139228,209901
139237,209930
139248,209921
139256,209906
139266,209899
139277,209900
139287,209931
139297,209915
139306,209908
139316,209892
139326,209929
139336,209906
139347,209921
139356,209919
139366,209867
139376,209837
139387,209835
139396,209791
139406,209728
139417,209734
139427,209714
139436,209681
139446,209645
139492,209637
139496,209634
139507,209628
139517,209631
139527,209630
139536,209612
139546,209576
139556,209598
139567,209612
139576,209609
139586,209605
139597,209632
139642,209597
139646,209614
139657,209605
139698,209607
139706,209571
139716,209598
139757,209614
139768,209647
139816,209635
139826,209638
139837,209673
139846,209647
139857,209667
139898,209721
139907,209762
139917,209751
139928,209740
139937,209754
139947,209750
139956,209739
139967,209766
139978,209780
139988,209774
139997,209773
140007,209775
140018,209779
140027,209769
140037,209769
140048,209765
140057,209770
140067,209768
140077,209782
140088,209803
140097,209807
140107,209793
140117,209808
140128,209815
140137,209830
140147,209823
140158,209835
140167,209837
140177,209848
140187,209842
140197,209860
140207,209873
140218,209851
140228,209832
140237,209862
140289,209896
140300,209923
140309,209915
140359,209872
140368,209845
140419,209670
140429,209643
140467,209689
140507,209714
140518,209680
140527,209689
140537,209690
140547,209687
140558,209698
140567,209692
140577,209704
140588,209693
140598,209714
140607,209705
140617,209718
140628,209727
140637,209707
140689,209720
140701,209708
140707,209719
140717,209687
140728,209730
140737,209719
140747,209755
140757,209729
140768,209758
140777,209709
140787,209732
140797,209729
140808,209777
140818,209770
140828,209791
140837,209773
140847,209756
140858,209787
140868,209785
140877,209774
140887,209760
140898,209808
140908,209813
140917,209785
140927,209747
140938,209813
140947,209793
140958,209812
140967,209798
140977,209784
140987,209771
140998,209835
141007,209787
141052,209811
141058,209832
141069,209817
141150,210022
141159,210026
141169,209980
141219,210019
141270,210037
141279,210036
141288,210024
141299,210054
141308,210075
141318,210092
141328,210086
141338,210105
141349,210102
141358,210111
141369,210116
141378,210093
141388,210091
141398,210102
141408,210103
141418,210099
141429,210109
141438,210124
141488,210150
141498,210146
141509,210162
141519,210170
141528,210156
141538,210135
141548,210158
141558,210178
141569,210143
141578,210186
141588,210181
141599,210169
141608,210203
141619,210196
141628,210188
141639,210191
141648,210197
141659,210209
141668,210201
141679,210231
141689,210231
141698,210219
141708,210220
141719,210233
141728,210222
141738,210204
141748,210217
141758,210216
141768,210220
141778,210237
141821,210146
141901,210205
141909,210197
141920,210223
141928,210187
141982,210238
141990,210207
141999,210244
142008,210225
142018,210210
142028,210193
142038,210208
142048,210165
142058,210120
142069,210096
142078,210028
142088,210023
142098,209987
142109,209991
142118,209958
142128,209978
142138,209972
142148,209996
142159,210017
142169,210000
142178,209992
142189,210016
142198,209996
142208,210008
142219,210006
142229,210001
142238,209996
142290,210030
142300,210063
142309,210071
142319,210039
142329,210044
142339,210052
142348,210063
142360,210027
142369,210006
142379,210024
142389,210020
142399,210002
142409,210016
142420,209998
142429,210010
142439,210013
142449,209998
142460,209996
142469,209951
142480,209842
142489,209645
142540,208159
142581,208093
142591,207972
142599,208037
142643,207763
142650,207635
142659,207510
142670,207388
142679,207284
142689,207138
142733,206806
142742,206728
142751,206624
142759,206513
142769,206442
142779,206347
142789,206252
142799,206196
142810,206142
142819,206035
142830,205964
142839,205857
142849,205707
142859,205546
142869,205351
142880,205369
142889,205281
142899,205077
142910,204847
142919,204573
142929,204277
142939,204017
142950,203751
142959,203472
142969,203237
142980,203106
142989,202900
143000,202772
143009,202698
143019,202535
143030,202308
143039,202143
143092,201231
143102,201104
143110,200982
143119,200888
143129,200810
143139,200761
143186,200749
143188,200580
143192,200503
143200,200500
143209,200381
143220,200349
143229,200273
143239,200281
143249,200442
143259,200324
143269,200214
143279,200076
143289,200009
143300,199979
143340,199972
143350,200011
143360,200027
143370,200058
143380,200098
143390,200127
143400,200168
143409,200215
143419,200247
143431,200301
143440,200336
143481,200353
143493,200524
143531,200625
143533,200503
143541,200699
143552,200710
143560,200757
143571,200831
143611,200962
143623,200920
143670,200675
143681,200634
143690,200558
143700,200546
143710,200461
143721,200454
143730,200433
143741,200424
143751,200400
143760,200360
143770,200341
143780,200327
143791,200352
143800,200369
143810,200338
143820,200358
143830,200399
143841,200435
143891,200692
143901,200662
143952,200680
143960,200684
143970,200687
143980,200709
143990,200711
144001,200738
144010,200734
144021,200721
144030,200725
144040,200731
144050,200719
144060,200747
144071,200793
144080,200769
144090,200749
144100,200756
144110,200773
144121,200836
144130,200839
144140,200859
144150,200868
144160,200884
144211,200908
144253,200912
144263,200887
144271,200932
144352,200975
144361,200937
144411,200986
144420,200956
144430,200936
144441,200938
144450,200900
144461,200822
144471,200778
144482,200745
144491,200705
144502,200669
144511,200660
144521,200672
144532,200662
144541,200645
144551,200629
144561,200637
144572,200635
144581,200645
144591,200636
144602,200624
144611,200636
144622,200620
144631,200625
144641,200630
144692,200607
144701,200625
144712,200610
144721,200628
144731,200603
144742,200587
144751,200577
144761,200546
144772,200564
144781,200566
144791,200555
144802,200548
144811,200558
144821,200546
144831,200551
144842,200558
144851,200558
144861,200546
144871,200534
144881,200516
144892,200527
144901,200530
144951,200539
144962,200555
145006,200574
145012,200599
145055,200603
145092,200608
145095,200577
145102,200576
145111,200554
145121,200512
145132,200450
145141,200376
145152,200310
145161,200225
145172,200213
145181,200143
145192,200124
145201,200087
145211,200045
145222,200044
145231,200014
145241,199989
145252,199986
145261,199933
145272,199912
145281,199840
145292,199846
145301,199754
145311,199710
145321,199706
145332,199716
145341,199700
145352,199797
145361,199798
145371,199818
145382,199862
145391,199836
145401,199846
145412,199897
145421,199859
145431,199854
145442,199921
145493,199956
145501,199962
145512,199984
145521,199919
145532,199882
145542,199789
145552,199760
145603,199320
145612,199245
145654,199007
145662,198931
145706,198765
145712,198695
145722,198673
145733,198636
145742,198602
145752,198547
145762,198517
145773,198490
145782,198454
145793,198424
145802,198424
145813,198405
145822,198462
145833,198455
145842,198458
145884,198470
145892,198521
145902,198515
145913,198532
145922,198516
145932,198541
145942,198515
145953,198445
145962,198381
145973,198309
145982,198230
145993,198152
146002,198099
146013,198078
146023,198039
146032,198022
146043,198004
146052,197989
146063,198022
146072,198036
146083,198023
146092,198040
146103,198054
146112,198061
146123,198063
146132,198057
146143,198054
146152,198029
146163,198080
146172,198062
146182,198084
146192,198091
146202,198096
146252,198124
146304,198069
146343,198158
146354,198148
146404,198219
146413,198211
146423,198264
146432,198253
146442,198304
146453,198378
146462,198414
146472,198488
146483,198604
146492,198626
146502,198708
146513,198799
146522,198828
146532,198908
146543,199011
146553,199099
146562,199115
146572,199217
146583,199279
146592,199336
146603,199398
146612,199411
146623,199477
146633,199528
146642,199598
146686,199777
146693,199805
146703,199889
146714,199942
146723,199950
146733,199952
146744,199951
146753,199940
146763,199919
146774,199893
146783,199885
146794,199862
146803,199879
146814,199896
146823,199944
146834,199999
146843,200073
146853,200122
146864,200154
146873,200146
146884,200151
146893,200165
146904,200119
146913,200116
146955,200069
146965,200109
146974,200107
147017,200142
147023,200144
147074,200145
147086,200137
147135,200228
147143,200245
147153,200242
147163,200256
147174,200233
147183,200244
147194,200244
147203,200222
147214,200218
147223,200201
147234,200196
147243,200189
147254,200168
147263,200159
147274,200139
147283,200129
147294,200130
147303,200112
147314,200105
147323,200107
147334,200143
147343,200122
147353,200141
147364,200197
147373,200186
147384,200210
147393,200175
147404,200209
147413,200210
147424,200243
147433,200227
147478,200272
147485,200243
147493,200266
147503,200259
147513,200252
147524,200257
147533,200180
147544,200212
147553,200126
147564,200118
147573,200050
147584,200077
147593,200004
147604,200021
147613,200002
147624,200012
147674,200022
147685,200020
147736,199995
147747,199990
147753,199985
147764,199976
147774,199981
147784,199937
147794,199870
147803,199728
147814,199672
147823,199633
147833,199563
147845,199467
147895,199132
147905,199098
147915,199071
147924,199067
147934,199008
147945,198959
147956,198896
147964,198848
147974,198811
147984,198770
147994,198771
148004,198752
148015,198740
148090,198672
148092,199990
148095,198603
148104,198506
148148,198472
148152,199937
148155,198493
148166,198442
148174,198489
148184,198488
148194,198487
148204,198478
148214,198452
148224,198429
148235,198435
148244,198410
148254,198401
148265,198376
148274,198363
148285,198390
148294,198394
148305,198391
148314,198343
148325,198316
148334,198269
148345,198254
148354,198175
148365,198156
148404,198055
148415,198088
148424,198036
148434,198037
148445,198053
148454,198013
148465,198004
148474,198004
148485,198019
148494,197984
148505,198028
148515,198042
148524,198041
148534,198114
148544,198139
148555,198220
148564,198235
148574,198272
148585,198313
148594,198300
148605,198357
148614,198312
148625,198339
148634,198302
148712,198313
148726,198287
148736,198294
148745,198247
148789,198329
148796,198318
148806,198327
148849,198461
148896,198537
148905,198552
148915,198581
148925,198593
148936,198624
148945,198649
148955,198662
148965,198663
148975,198678
148985,198720
148995,198765
149005,198799
149015,198816
149025,198862
149035,198914
149086,198886
149095,198864
149105,198866
149115,198883
149125,198905
149135,198884
149145,198858
149155,198824
149165,198836
149175,198879
149185,198878
149195,198909
149205,198939
149215,198968
149225,198968
149235,198985
149245,199004
149255,199027
149265,199024
149275,199048
149285,199037
149295,199062
149305,199090
149315,199109
149325,199114
149336,199145
149346,199147
149355,199168
149365,199191
149375,199184
149385,199211
149395,199219
149440,199206
149446,199224
149457,199217
149547,199337
149555,199354
149600,199435
149606,199469
149652,199515
149655,199580
149665,199524
149675,199519
149685,199527
149695,199525
149705,199545
149715,199560
149725,199574
149736,199592
149745,199614
149755,199623
149765,199631
149775,199642
149785,199626
149795,199653
149805,199611
149816,199668
149825,199670
149835,199666
149880,199703
149887,199735
149896,199743
149907,199758
149915,199731
149926,199727
149936,199704
149946,199658
149957,199635
149967,199623
149976,199581
149987,199578
149997,199577
150007,199592
150016,199592
150027,199606
150037,199619
150047,199613
150056,199608
150067,199638
150077,199634
150087,199654
150096,199681
150107,199682
150117,199701
150127,199716
150136,199724
150147,199731
150191,199738
150194,199665
150197,199811
150249,199824
150298,199851
150349,199905
150359,199949
150366,199959
150377,199935
150387,199992
150397,200001
150407,200037
150416,200044
150426,200046
150436,200044
150446,200061
150456,200073
150466,200075
150476,200093
150486,200120
150496,200117
150506,200113
150516,200124
150526,200140
150537,200141
150546,200128
150556,200173
150566,200194
150576,200185
150586,200194
150596,200208
150606,200227
150616,200236
150626,200240
150636,200249
150677,200261
150686,200279
150696,200292
150707,200347
150716,200309
150726,200332
150736,200337
150746,200352
150756,200367
150766,200356
150776,200360
150786,200310
150796,200280
150806,200280
150816,200257
150826,200240
150836,200231
150846,200204
150856,200236
150866,200222
150908,200267
150948,200288
150960,200306
151006,200242
151019,200313
151027,200359
151038,200364
151048,200369
151092,200392
151100,200405
151107,200412
151117,200418
151128,200412
151137,200423
151148,200410
151158,200450
151168,200452
151177,200475
151188,200471
151198,200482
151208,200492
151217,200503
151227,200526
151238,200534
151248,200529
151257,200543
151267,200554
151278,200554
151288,200548
151297,200541
151308,200505
151317,200499
151328,200496
151338,200468
151347,200481
151358,200483
151368,200473
151377,200480
151388,200479
151398,200477
151408,200502
151417,200516
151428,200542
151468,200539
151470,200412
151477,200568
151487,200575
151498,200609
151508,200637
151518,200641
151561,200617
151602,200634
151609,200717
151619,200626
151662,200677
151667,200639
151718,200750
151728,200766
151738,200774
151747,200736
151758,200772
151768,200793
151777,200761
151788,200811
151798,200819
151808,200829
151817,200798
151828,200843
151837,200857
151880,200926
151888,200896
151898,200939
151908,200945
151918,200958
151928,200965
151939,200963
151949,200980
151959,200997
151969,200993
151978,200991
151988,201023
151998,201030
152008,201043
152019,201060
152029,201059
152039,201045
152049,201028
152058,201050
152068,201083
152078,201101
152088,201082
152099,201103
152109,201123
152119,201132
152129,201116
152139,201147
152148,201143
152158,201148
152168,201179
152179,201167
152189,201178
152199,201188
152209,201203
152291,201281
152293,200980
152299,201261
152341,201249
152351,201126
152360,201123
152403,201087
152409,201126
152419,201127
152430,201150
152438,201187
152448,201200
152458,201198
152468,201229
152479,201226
152489,201242
152499,201263
152509,201249
152552,201280
152559,201255
152568,201281
152578,201305
152589,201282
152599,201349
152608,201308
152618,201339
152629,201365
152638,201328
152649,201349
152659,201360
152669,201394
152720,201425
152763,201451
152769,201439
152779,201470
152789,201489
152799,201489
152808,201464
152818,201481
152829,201521
152839,201519
152849,201521
152858,201506
152869,201528
152879,201559
152889,201549
152898,201552
152909,201587
152919,201605
152929,201605
152939,201631
152948,201610
152959,201634
152969,201645
152978,201679
152989,201677
152999,201708
153009,201722
153020,201735
153030,201756
153039,201778
153080,201815
153089,201827
153099,201830
153109,201857
153119,201878
153129,201881
153140,201885
153150,201900
153160,201892
153170,201890
153180,201853
153190,201800
153199,201817
153209,201782
153220,201753
153230,201742
153240,201726
153250,201745
153260,201753
153270,201755
153313,201810
153321,201826
153364,201858
153371,201821
153421,201906
153430,201920
153440,201938
153450,201946
153460,201972
153470,201976
153512,201991
153521,202004
153529,202048
153539,202040
153549,202078
153559,202062
153569,202074
153580,202113
153590,202138
153600,202128
153610,202152
153620,202158
153630,202166
153640,202201
153650,202195
153660,202206
153670,202232
153680,202237
153690,202281
153700,202264
153710,202290
153720,202301
153730,202302
153739,202280
153749,202280
153759,202287
153769,202290
153779,202343
153789,202331
153799,202344
153809,202349
153820,202378
153830,202411
153874,202437
153882,202438
153892,202484
153900,202486
153909,202445
153919,202475
153973,202566
154014,202578
154022,202646
154030,202597
154073,202502
154082,202469
154090,202465
154100,202467
154110,202451
154120,202469
154130,202463
154140,202463
154151,202484
154160,202478
154170,202480
154180,202501
154190,202483
154200,202496
154210,202501
154220,202492
154230,202503
154281,202524
154291,202514
154301,202534
154311,202539
154320,202594
154330,202598
154340,202583
154350,202602
154360,202605
154370,202600
154380,202620
154390,202646
154400,202639
154410,202634
154420,202636
154430,202658
154440,202683
154450,202685
154460,202693
154470,202710
154480,202709
154490,202726
154500,202752
154510,202753
154520,202757
154530,202745
154540,202788
154550,202778
154560,202793
154570,202814
154580,202826
154632,202851
154642,202851
154721,202904
154732,202961
154740,202975
154781,202993
154792,203028
154801,203016
154810,203043
154820,203055
154830,203081
154840,203044
154850,203069
154861,203130
154871,203127
154881,203148
154891,203158
154900,203106
154910,203058
154920,203030
154930,203000
154940,202973
154950,202910
154960,202858
154970,202849
154981,202867
154991,202856
155001,202866
155011,202854
155020,202849
155030,202867
155041,202870
155082,202957
155092,202970
155100,202946
155110,202970
155120,202933
155131,202957
155142,202964
155151,202984
155161,202980
155171,203000
155182,203017
155191,203013
155201,203005
155211,203023
155222,203027
155231,203046
155241,203043
155252,203039
155261,203046
155271,203051
155281,203053
155291,203079
155301,203089
155352,203116
155363,203139
155413,203182
155422,203214
155464,203206
155472,203171
155482,203242
155572,203213
155583,203216
155591,203201
155601,203165
155612,203167
155621,203121
155631,203135
155641,203122
155651,203123
155662,203172
155671,203155
155681,203151
155691,203147
155702,203171
155711,203176
155721,203146
155731,203159
155741,203157
155752,203186
155761,203187
155771,203154
155781,203204
155791,203172
155801,203164
155811,203132
155821,203113
155831,203052
155876,203017
155878,203281
155884,202956
155892,202947
155902,202968
155912,202976
155922,202931
155931,202949
155941,202934
155951,202968
155961,202982
155971,202981
155982,203061
155991,203018
156001,203000
156011,203018
156022,203057
156031,203053
156041,203014
156051,203018
156062,203072
156071,203038
156123,203154
156132,203169
156184,203271
156193,203294
156277,203344
156282,203348
156324,203462
156332,203446
156342,203436
156352,203457
156362,203496
156372,203492
156382,203483
156392,203498
156402,203494
156412,203486
156422,203519
156432,203512
156442,203518
156452,203518
156462,203509
156472,203513
156482,203525
156492,203513
156502,203525
156512,203540
156522,203533
156532,203551
156542,203547
156552,203550
156562,203561
156572,203569
156582,203582
156592,203579
156602,203579
156612,203590
156622,203573
156632,203576
156686,203429
156693,203441
156702,203439
156712,203409
156722,203431
156732,203420
156742,203421
156753,203450
156762,203451
156772,203452
156782,203446
156792,203455
156802,203451
156812,203438
156822,203433
156832,203445
156876,203401
156884,203471
156894,203445
156944,203410
156994,203398
157003,203418
157013,203431
157023,203410
157033,203431
157042,203408
157054,203435
157063,203437
157072,203400
157083,203459
157093,203416
157103,203449
157112,203419
157153,203455
157164,203458
157173,203477
157183,203493
157193,203480
157203,203465
157213,203456
157223,203473
157234,203494
157242,203449
157253,203500
157300,203503
157312,203455
157323,203521
157333,203513
157343,203516
157352,203513
157363,203525
157373,203530
157384,203532
157393,203531
157403,203551
157413,203552
157423,203561
157433,203559
157443,203565
157453,203564
157463,203542
157473,203499
157484,203464
157493,203431
157503,203397
157513,203349
157559,203334
157561,203480
157565,203267
157573,203298
157584,203302
157593,203293
157603,203271
157613,203269
157623,203264
157633,203280
157643,203278
157653,203272
157663,203274
157673,203273
157683,203259
157693,203254
157703,203255
157713,203262
157723,203283
157733,203288
157743,203282
157753,203284
157763,203289
157807,203267
157813,203277
157825,203270
157868,203270
157876,203302
157884,203320
157934,203323
157976,203353
157984,203372
157994,203367
158003,203352
158013,203369
158023,203381
158033,203366
158043,203381
158053,203397
158063,203389
158073,203402
158083,203385
158093,203414
158103,203414
158113,203414
158123,203419
158133,203428
158143,203424
158153,203416
158163,203425
158173,203423
158183,203437
158193,203431
158203,203419
158213,203409
158223,203372
158233,203322
158287,203345
158294,203144
158304,203170
158313,203109
158323,203146
158333,203112
158343,203154
158353,203158
158363,203135
158373,203150
158384,203174
158393,203152
158403,203158
158414,203152
158424,203145
158435,203149
158444,203165
158454,203167
158464,203183
158475,203186
158484,203185
158494,203204
158537,203168
158544,203187
158590,203175
158592,203297
158595,203204
158644,203199
158658,203187
158706,203244
158747,203158
158756,203247
158765,203261
158775,203281
158784,203265
158794,203280
158804,203236
158814,203282
158824,203267
158834,203271
158844,203277
158854,203292
158864,203292
158874,203270
158885,203312
158894,203313
158904,203318
158914,203332
158924,203345
158934,203343
158945,203345
158954,203359
158964,203343
158974,203350
158985,203319
158994,203282
159004,203237
159014,203180
159024,203121
159034,203115
159085,203009
159094,203009
159105,203025
159114,203036
159124,203029
159134,203024
159144,202989
159154,203012
159164,203015
159174,203012
159184,203009
159194,202996
159204,203026
159214,203022
159224,203006
159235,203054
159244,203020
159254,203029
159264,203041
159350,203003
159359,203003
159365,203016
159375,203024
159427,203057
159435,203064
159528,203026
159536,203154
159544,203138
159555,203153
159566,203166
159575,203165
159587,203165
159595,203195
159606,203200
159615,203214
159625,203205
159636,203208
159645,203224
159656,203198
159665,203219
159675,203221
159686,203238
159695,203240
159705,203265
159716,203254
159725,203293
159736,203261
159746,203281
159755,203289
159766,203287
159775,203269
159785,203227
159796,203225
159805,203154
159816,203100
159825,203055
159836,203043
159886,202972
159897,202972
159905,202980
159915,202981
159926,202975
159937,202955
159945,202973
159956,202964
159965,202972
159976,202950
160027,202935
160077,202976
160087,202990
160127,202982
160176,202976
160185,202956
160196,203034
160206,203003
160215,202961
160225,202999
160236,203039
160245,203003
160256,203018
160265,203000
160276,203034
160318,202964
160326,202985
160337,203017
160345,202992
160356,203033
160365,203004
160375,203029
160385,203027
160396,203039
160405,202991
160416,203042
160425,203032
160436,203051
160445,203014
160455,203054
160465,203060
160476,203079
160485,203062
160496,203055
160506,203087
160516,203072
160527,203087
160536,203094
160546,203100
160557,203102
160566,203117
160576,203119
160586,203105
160596,203128
160607,203133
160616,203097
160627,203080
160637,203034
160679,202830
160687,202838
160730,202753
160737,202737
160780,202810
160788,202806
160837,202746
160846,202743
160856,202768
160866,202740
160877,202755
160886,202770
160896,202745
160906,202763
160917,202749
160926,202767
160936,202745
160946,202760
160957,202741
160966,202757
160976,202762
160986,202756
160997,202751
161006,202773
161016,202766
161026,202769
161037,202774
161080,202773
161087,202811
161098,202809
161106,202801
161116,202825
161126,202817
161136,202817
161146,202832
161157,202834
161166,202841
161176,202832
161186,202840
161197,202861
161206,202853
161216,202862
161226,202842
161237,202870
161246,202870
161256,202861
161266,202874
161277,202900
161286,202886
161296,202876
161306,202877
161317,202914
161326,202879
161336,202902
161380,202958
161421,202934
161423,202773
161429,202911
161436,202870
161480,202730
161488,202704
161539,202659
161546,202626
161556,202633
161567,202641
161577,202641
161587,202637
161596,202625
161607,202617
161617,202627
161626,202607
161677,202630
161687,202663
161697,202651
161707,202637
161718,202646
161726,202664
161737,202679
161748,202641
161757,202659
161768,202658
161777,202682
161787,202652
161797,202676
161807,202648
161817,202659
161827,202666
161837,202670
161847,202663
161858,202668
161868,202671
161877,202682
161887,202699
161898,202688
161908,202720
161917,202692
161927,202717
161938,202712
161989,202774
161997,202727
162050,202744
162058,202786
162107,202797
162118,202807
162168,202814
162178,202793
162187,202840
162197,202822
162208,202854
162217,202857
162228,202866
162237,202881
162247,202842
162258,202904
162268,202899
162319,202718
162329,202685
162338,202653
162347,202591
162358,202614
162367,202572
162377,202524
162387,202544
162397,202532
162408,202567
162417,202506
162427,202538
162437,202523
162447,202522
162458,202561
162468,202552
162477,202534
162487,202516
162498,202551
162508,202534
162518,202548
162527,202515
162537,202517
162547,202521
162557,202535
162567,202563
162578,202579
162588,202578
162597,202558
162607,202562
162618,202570
162628,202561
162637,202557
162689,202549
162731,202605
162738,202631
162749,202648
162789,202643
162798,202637
162808,202651
162859,202722
162871,202674
162879,202682
162888,202696
162898,202687
162908,202692
162918,202708
162929,202711
162938,202733
162949,202746
162958,202742
162969,202751
162978,202739
162988,202729
162998,202720
163008,202710
163018,202742
163028,202755
163038,202757
163090,202787
163100,202789
163109,202792
163118,202805
163128,202826
163139,202816
163149,202840
163158,202851
163168,202830
163178,202821
163188,202813
163198,202761
163209,202729
163218,202694
163229,202629
163238,202594
163248,202548
163258,202523
163269,202517
163278,202507
163288,202467
163298,202477
163309,202516
163318,202495
163328,202455
163338,202484
163348,202485
163358,202470
163368,202442
163421,202466
163428,202465
163474,202541
163479,202516
163525,202553
163561,202821
163563,202813
163569,202481
163579,202469
163630,202489
163640,202531
163649,202530
163691,202562
163698,202562
163708,202553
163718,202569
163729,202587
163740,202593
163750,202600
163759,202622
163770,202607
163779,202636
163789,202616
163800,202645
163809,202647
163819,202631
163829,202635
163839,202669
163889,202689
163900,202698
163909,202685
163920,202710
163929,202689
163939,202714
163949,202689
163959,202713
163969,202732
163980,202726
163989,202743
164000,202773
164009,202796
164020,202804
164029,202819
164040,202812
164050,202831
164059,202834
164069,202811
164080,202766
164089,202716
164099,202666
164110,202617
164119,202548
164129,202460
164139,202447
164150,202365
164159,202382
164170,202338
164179,202328
164189,202331
164241,202298
164250,202285
164293,202327
164299,202254
164342,202321
164384,202333
164392,202341
164400,202345
164410,202403
164419,202342
164430,202400
164439,202365
