elapsed_ms,ir
175876,53762
175887,53767
175937,53740
175946,53778
175957,53757
175966,53758
175977,53787
175986,53765
175996,53747
176006,53763
176017,53763
176026,53751
176036,53718
176046,53740
176057,53750
176066,53752
176076,53734
176086,53747
176097,53773
176106,53756
176116,53752
176127,53993
176136,54196
176147,54211
176156,54196
176166,54193
176177,54230
176186,54202
176197,54237
176206,54219
176217,54247
176226,54196
176236,54184
176246,54184
176257,53306
176266,52961
176276,52974
176287,52984
176296,52977
176337,54185
176347,54159
176358,54188
176366,54155
176376,54139
176418,54150
176426,54169
176437,54137
176488,54155
176496,54156
176548,54156
176557,54143
176597,54176
176607,54156
176647,54155
176658,54182
176667,54151
176678,54168
176688,54153
176697,54175
176740,54174
176748,54156
176758,54152
176767,54145
176778,54158
176787,54131
176798,54165
176807,54137
176818,54145
176827,54153
176838,54131
176847,54125
176858,54130
176867,54154
176878,54140
176887,54136
176898,54153
176907,54167
176917,54160
176927,54164
176938,54159
176947,54156
176958,54156
176967,54174
176978,54155
176987,54160
176998,54170
177008,54161
177017,54187
177028,54171
177037,54180
177047,54168
177058,54190
177067,54180
177078,54191
177088,54163
177098,54172
177140,54148
177147,54155
177157,54158
177167,54165
177208,54144
177218,54192
177259,54157
177267,54158
177279,54143
177320,54165
177328,54183
177367,54157
177378,54187
177420,54160
177427,54135
177467,54131
177479,54148
177488,54135
177530,54141
177540,54163
177548,54161
177558,54160
177568,54147
177579,54187
177588,54188
177598,54177
177608,54155
177618,54177
177628,54156
177638,54168
177648,54171
177658,54171
177668,54159
177678,54151
177688,54165
177698,54157
177709,54165
177718,54164
177729,54259
177738,54442
177748,54479
177758,54469
177768,54380
177778,54333
177789,54345
177798,54359
177809,54343
177818,54324
177828,54300
177838,54321
177848,54568
177859,54630
177868,54627
177878,54573
177888,54538
177898,54515
177938,54440
177948,54463
177959,54471
177968,54441
177978,54474
178019,54459
178028,54471
178038,54464
178087,54471
178099,54471
178140,54456
178148,54469
178198,54459
178237,54456
178239,54515
178251,54471
178259,54477
178309,54417
178319,54419
178329,54446
178381,54436
178390,54424
178398,54424
178408,54398
178419,54435
178428,54416
178438,54413
178448,54385
178459,54445
178468,54404
178478,54392
178488,54394
178499,54427
178509,54419
178518,54397
178529,54427
178538,54407
178548,54416
178558,54415
178568,54417
178579,54434
178588,54435
178598,54432
178608,54429
178618,54432
178629,54438
178638,54443
178650,54446
178659,54448
178669,54440
178712,54429
178718,54445
178769,54429
178779,54438
178790,54438
178799,54428
178809,54441
178820,54416
178865,54424
178868,54358
178913,54421
178919,54424
178929,54424
178971,54423
178979,54411
178991,54435
179029,54407
179040,54416
179091,54423
179101,54388
179142,54444
179150,54397
179200,54408
179239,54440
179250,54399
179259,54427
179269,54438
179279,54431
179289,54413
179300,54444
179309,54449
179320,54446
179329,54450
179339,54438
179350,54453
179360,54455
179369,54450
179379,54403
179390,54470
179400,54446
179409,54457
179419,54433
179430,54481
179440,54477
179449,54454
179460,54476
179470,54474
179511,54461
179519,54473
179560,54459
179570,54419
179579,54422
179590,54449
179599,54403
179610,54426
179619,54397
179629,54423
179639,54406
179649,54398
179698,54444
179700,54414
179742,54402
179750,54437
179790,54452
179802,54414
179850,54420
179894,54427
179901,54443
179944,54455
179950,54443
179992,54446
180000,54444
180040,54465
180051,54461
180061,54451
180070,54439
180080,54448
180090,54441
180101,54437
180110,54416
180120,54432
180131,54428
180140,54414
180150,54421
180161,54417
180170,54407
180180,54398
180190,54435
180200,54411
180210,54419
180221,54410
180230,54425
180240,54413
180251,54425
180260,54445
180270,54431
180311,54459
180352,54422
180360,54485
180371,54505
180381,54508
180390,54559
180400,54577
180410,54588
180420,54604
180431,54680
180440,54706
180451,54876
180460,55188
180470,55562
180481,54890
180490,54946
180534,54646
180541,54714
180582,54828
180591,55205
180634,55177
180642,55216
180691,55802
180740,55340
180780,54785
180790,53277
180831,53235
180875,53160
180881,53206
180893,53274
180930,53474
180971,53822
180981,53937
180991,54216
181002,54261
181011,54321
181021,54337
181032,54315
181041,54305
181051,54298
181062,54270
181072,54263
181116,54142
181161,53967
181173,53955
181181,53890
181191,53837
181201,53790
181211,53714
181221,53684
181232,53654
181241,53636
181251,53592
181261,53550
181271,53529
181281,53507
181292,53503
181301,53535
181311,53576
181322,53691
181331,54141
181341,54446
181351,54630
181362,54932
181371,55333
181381,55410
181391,55449
181401,55483
181412,55505
181422,55513
181431,55516
181442,55502
181451,55472
181461,55379
181471,55266
181552,54125
181562,54161
181601,54239
181613,55052
181622,55714
181673,56667
181715,55449
181722,57594
181762,58442
181800,58614
181853,58142
181861,57927
181872,57466
181916,56507
181922,56514
181962,55917
181972,55348
181982,55026
181992,55000
182003,55039
182012,54407
182022,53403
182032,53369
182043,54368
182052,54988
182062,55029
182072,55015
182082,54999
182093,54991
182102,54972
182113,54965
182122,54943
182132,54952
182143,54913
182152,55120
182162,54992
182173,54985
182182,54980
182193,54980
182202,54965
182213,54967
182222,54895
182233,54850
182242,54783
182252,54760
182263,54768
182272,54809
182283,54900
182292,54830
182302,54752
182312,54813
182322,54859
182333,54894
182342,54918
182352,54978
182395,55639
182402,55584
182452,55438
182495,54027
182504,54062
182541,54053
182543,54965
182552,54016
182598,53523
182604,53389
182613,53342
182653,53085
182693,53053
182702,52933
182713,52961
182753,52722
182763,52558
182772,52440
182782,52382
182792,52326
182802,52313
182814,52311
182855,54053
182863,52218
182914,52240
182922,52193
182932,52212
182943,52225
182952,52201
182962,52263
182973,52294
182982,52308
182993,52346
183002,52310
183013,52308
183022,52312
183033,52289
183042,52291
183053,52297
183064,52295
183073,52283
183083,52282
183094,52300
183103,52298
183114,52306
183123,52284
183133,52277
183144,52286
183153,52368
183164,52395
183174,52421
183215,52469
183223,52451
183264,52460
183307,52492
183314,52521
183324,52491
183366,52502
183368,52312
183373,52520
183384,52522
183424,52542
183433,52581
183474,52635
183525,52623
183534,52608
183575,52672
183584,52691
183593,52718
183603,52717
183614,52749
183653,52789
183655,52471
183663,53013
183714,53265
183724,53264
183733,53285
183743,53273
183753,53344
183763,53448
183774,53563
183783,53522
183793,53493
183803,53475
183814,53458
183823,53388
183833,53319
183843,53232
183854,53176
183863,53117
183873,53104
183884,53140
183893,53143
183903,53206
183914,53251
183923,53254
183933,53295
183944,53354
183953,53632
183963,55310
183974,55358
184015,55375
184024,55364
184073,55183
184117,55127
184125,55289
184134,55462
184147,55475
184235,53894
184285,54343
184295,54324
184306,54304
184346,55507
184355,55556
184396,55500
184406,55448
184445,55243
184485,55233
184494,54965
184505,54947
184547,54952
184550,54874
184554,54907
184564,54918
184575,54898
184584,54956
184594,54975
184605,54999
184614,55014
184625,55041
184634,55066
184645,55080
184654,55105
184665,55103
184674,55106
184684,55099
184695,55055
184704,54994
184714,54942
184725,54922
184734,54888
184744,54873
184754,54848
184765,54875
184774,54830
184816,54554
184824,52982
184864,55206
184876,54952
184885,53733
184894,53065
184905,53146
184914,53413
184925,53897
184934,53834
184945,53558
184954,53139
184965,53067
184974,52945
184984,52874
184994,52867
185005,53032
185015,53291
185024,53418
185034,53524
185045,53890
185054,53639
185099,53576
185106,53524
185155,53594
185164,53566
185206,53567
185246,53543
185288,56102
185295,56202
185335,56414
185344,56479
185387,56705
185428,56696
185435,56766
185446,56807
185456,56883
185496,56927
185507,56891
185515,56833
185526,56788
185535,56712
185545,56658
185556,56627
185565,56579
185576,56565
185585,56507
185596,56492
185605,56462
185616,56434
185625,56471
185637,56452
185677,56307
185685,56276
185727,56062
185735,56009
185746,55929
185755,55869
185765,55789
185776,55698
185785,55727
185795,55789
185805,55875
185816,55967
185825,56053
185836,56194
185845,56388
185856,56667
185865,57084
185876,57713
185885,58169
185896,58199
185905,58140
185916,58150
185925,58178
185936,58383
185945,58565
185956,58661
185965,58634
185975,58578
186046,57999
186056,57109
186065,56605
186105,56660
186116,56114
186125,53603
186168,53612
186175,53529
186216,53384
186257,53182
186266,53203
186306,53435
186316,53388
186356,54086
186407,55256
186457,55272
186506,55149
186517,54404
186526,53338
186536,53430
186546,53535
186556,53672
186566,53764
186576,53912
186586,53985
186596,54380
186606,55185
186616,55191
186626,55268
186636,55363
186646,55415
186656,55454
186666,55483
186677,55466
186686,55346
186696,55200
186706,54935
186716,54586
186726,54363
186736,54241
186746,54164
186756,54078
186766,54016
186776,53963
186820,53815
186827,53736
186867,56231
186878,56863
186886,56957
186896,57007
186906,57029
186947,56879
186957,56676
186996,55763
187047,55254
187097,54980
187146,54887
187188,54829
187197,54797
187241,54306
187247,54559
187297,55151
187307,55152
187316,55110
187326,55139
187336,55128
187346,55132
187356,55151
187366,55133
187376,55145
187386,55145
187396,55154
187406,55170
187416,55156
187426,55197
187437,55220
187447,55219
187456,55066
187467,55172
187477,55233
187488,55227
187498,55201
187507,55223
187517,55197
187527,55226
187537,55223
187547,55211
187557,55200
187567,55212
187577,55217
187618,55225
187627,55187
187667,55184
187679,55208
187687,55203
187697,55209
187741,55195
187748,55219
187797,55264
187848,55493
187858,55440
187897,55533
187907,55483
187948,55340
187997,55297
188048,55051
188088,55212
188097,54999
188107,55201
188117,55618
188127,56208
188137,57057
188147,58070
188157,59151
188167,60023
188177,60267
188187,60308
188197,60388
188208,60412
188217,60414
188227,60411
188237,60640
188247,60849
188257,60625
188267,60415
188277,60361
188287,60312
188297,60347
188307,60195
188317,60170
188327,60179
188337,60166
188347,60270
188357,60360
188367,60416
188377,60477
188420,60687
188429,60727
188470,61046
188478,61034
188488,61012
188497,61008
188540,59134
188549,58246
188558,58089
188597,57964
188641,55818
188649,55098
188658,55030
188708,53602
188760,52807
188768,52743
188808,52634
188858,52642
188902,52623
188909,52650
188918,52607
188928,52592
188939,52572
188949,52573
188959,52549
188969,52549
188979,52553
188990,52543
188998,52549
189009,52551
189019,52524
189029,52534
189038,52543
189049,52521
189059,52528
189069,52522
189079,52504
189088,52531
189099,52534
189109,52522
189118,52549
189129,52682
189139,52679
189149,52661
189158,52636
189169,52626
189209,52624
189220,52519
189269,52524
189279,52468
189288,52492
189299,52514
189309,52501
189318,52487
189360,52467
189369,52457
189412,52469
189418,52426
189469,52462
189479,52459
189490,52493
189531,52479
189538,52421
189579,52426
189588,52397
189640,52553
189682,52953
189688,53137
189730,52433
189739,52902
189750,52888
189759,52859
189769,52859
189779,52901
189789,52933
189800,52958
189810,52987
189820,53052
189829,53146
189840,53297
189850,53444
189860,53581
189869,53671
189880,53603
189889,53488
189900,53320
189909,53174
189919,53152
189930,53970
189940,55234
189950,55169
189959,55108
189970,55041
190009,54998
190021,54005
190029,53619
190070,52926
190081,52958
190089,52722
190099,52674
190110,52617
190119,52658
190129,52658
190140,52669
190150,52694
190159,52699
190170,52688
190210,52678
190220,52689
190230,52709
190271,52975
190280,53019
190323,53071
190330,53191
190420,53495
190463,53637
190497,54126
190512,55366
190519,55371
190557,55421
190570,55373
190580,55252
190621,54682
190629,54529
190639,54407
190650,54432
190660,54461
190670,54583
190680,54725
190689,54940
190699,55283
190710,55518
190719,56190
190730,58512
190739,58561
190750,57851
190759,56697
190770,55658
190780,55845
190824,55631
190830,55629
190841,55618
190879,55591
190891,55595
190900,55581
190910,55567
190920,55582
190930,55587
190940,55564
190950,55577
190961,55583
190971,55588
190981,55600
190991,55582
191000,55573
191010,55591
191020,55592
191030,55580
191041,55577
191050,55591
191060,55595
191070,55586
191080,55572
191090,55585
191100,55569
191110,55577
191120,55568
191164,55532
191171,55569
191183,55545
191254,55581
191260,55585
191270,55577
191310,55606
191321,55566
191370,55555
191412,55576
191421,55549
191470,55734
191513,55743
191515,55575
191522,55867
191531,55859
191620,55966
191665,55428
191671,55564
191721,55925
191732,55482
191740,55189
191750,55116
191761,55245
191771,55603
191781,53866
191791,53913
191800,53872
191810,53865
191820,53888
191830,54185
191841,54071
191851,53948
191861,53953
191871,53887
191881,53847
191892,53841
191900,53810
191910,53794
191921,53771
191931,53805
191941,53829
191951,53831
191962,53843
191971,53845
191981,53860
192022,55747
192030,55778
192071,55706
192081,55654
192091,55614
192101,55597
192111,55557
192121,55503
192172,55507
192223,55575
192273,55468
192281,55428
192323,55244
192366,55623
192411,56804
192421,56876
192464,56812
192473,56704
192513,56875
192522,57017
192531,57179
192542,57193
192552,57448
192561,57110
192571,57557
192581,57911
192591,58135
192602,58311
192612,58457
192622,58592
192632,58561
192641,58558
192651,58458
192661,58296
192671,58110
192681,57908
192692,57780
192702,57616
192712,57455
192721,57277
192731,57102
192741,56979
192751,56914
192762,56881
192772,56710
192822,55994
192832,55686
192874,55224
192883,55252
192891,55218
192901,55178
192911,55147
192953,55150
192961,55184
193002,55995
193054,57018
193062,57349
193103,58178
193112,58223
193155,58394
193162,58387
193203,58000
193212,57864
193254,57185
193262,57059
193313,56950
193323,57058
193332,57174
193342,57325
193352,57544
193363,57600
193372,57664
193382,57779
193392,57817
193403,57798
193412,57696
193422,57596
193432,57388
193443,57216
193453,57233
193462,57238
193472,57317
193482,57358
193493,57394
193502,57291
193512,56965
193522,56775
193532,56774
193542,56676
193552,56580
193563,56540
193572,56498
193623,56500
193633,56574
193673,56726
193683,56678
193692,56720
193702,56711
193748,56577
193752,56581
193803,56747
193843,57385
193853,58245
193863,58369
193904,56478
193912,60386
193956,56574
193963,61729
194013,61960
194063,64385
194103,64841
194113,66205
194123,66226
194132,66220
194142,65996
194152,65762
194162,65628
194172,65554
194183,65600
194193,65685
194203,65862
194213,66087
194223,66354
194233,66677
194244,67213
194253,67871
194263,68193
194273,68342
194283,68442
194293,68525
194303,68738
194313,68724
194324,68684
194333,68763
194343,68903
194353,69085
194364,69198
194373,69275
194424,69619
194433,69675
194483,70376
194494,70410
194504,70507
194513,70590
194564,71255
194603,71333
194613,71853
194664,72268
194675,72598
194714,72984
194764,72828
194814,72538
194859,72393
194864,72392
194915,72126
194923,72052
194964,71900
194975,71851
194984,71762
194993,71626
195003,70894
195013,69778
195023,68097
195033,66249
195044,65638
195053,65285
195063,65036
195073,64880
195083,64733
195094,64615
195103,64441
195113,64326
195124,64231
195133,64135
195143,64114
195153,64105
195164,64150
195173,64124
195212,64133
195215,72358
195226,64200
195233,64191
195274,64590
195285,64430
195294,64366
195304,64436
195314,64498
195324,64520
195334,64503
195344,64492
195354,64483
195364,64536
195374,64580
195384,64664
195394,64716
195404,64764
195414,64888
195456,66342
195463,66566
195474,66789
195518,67467
195525,67515
195568,67930
195575,68081
195617,67895
195625,67487
195668,63861
195674,63467
195718,62303
195727,62290
195734,62297
195775,62205
195787,62065
195796,61979
195844,61875
195854,61888
195864,61877
195874,61868
195884,61846
195894,61840
195904,61840
195914,61801
195924,61752
195934,61729
195944,61675
195954,61652
195964,61621
195974,61583
195984,61565
195994,61541
196038,61353
196045,60711
196055,58814
196095,53799
196106,53737
196115,53822
196124,53796
196134,53839
196144,53853
196154,53862
196164,53909
196174,53926
196184,53935
196194,53955
196204,53956
196214,53957
196224,53947
196234,53944
196244,53973
196254,53991
196264,53975
196274,53957
196284,53970
196294,53981
196304,53964
196314,53980
196325,54000
196335,54016
196345,54038
196387,54078
196428,54074
196438,54071
196446,54060
196495,54006
196504,54088
196548,54107
196589,54114
196591,53973
196595,54111
196606,54095
196656,54108
196706,54119
196717,54146
196797,54102
196800,54071
196806,54062
196848,54026
196857,53957
196866,53938
196916,53759
196926,53242
196935,53196
196945,53163
196956,53151
196965,53134
196975,53156
196985,53169
196995,53178
197005,53167
197015,53201
197025,53201
197035,53173
197045,53209
197055,53226
197065,53281
197075,53320
197085,53410
197095,53532
197105,53627
197115,53675
197125,53792
197135,53854
197145,53965
197155,54032
197165,54131
197175,54174
197226,54024
197236,53999
197276,53634
197287,53554
197295,53464
197305,53455
197356,53482
197367,53494
197375,53465
197415,53377
197468,53047
197477,53037
197527,53314
197570,53437
197576,53584
197617,53762
197669,54093
197677,54157
197727,53253
197737,53153
197746,53213
197757,53386
197766,53717
197777,53878
197786,53920
197796,53931
197806,53946
197817,53990
197826,54006
197836,54027
197846,54067
197857,54130
197866,54531
197876,55168
197886,55463
197897,55466
197906,55379
197916,55400
197926,55578
197937,55839
197946,56126
197956,56462
197966,56859
197977,57133
198019,54260
198026,57596
198036,57638
198077,57736
198087,57828
198097,57975
198106,58213
198117,58412
198168,58725
198178,58768
198186,58792
198226,59291
198237,59440
198279,59763
198287,59754
198297,59841
198346,60066
198440,61715
198449,61860
198496,62543
198507,62781
198547,64985
198558,65099
198566,65084
198578,64976
198587,64798
198598,64897
198607,65105
198617,65316
198628,65617
198637,65718
198648,66125
198657,66159
198667,65983
198678,65748
198687,65560
198698,65497
198707,65319
198718,65086
198727,65024
198738,64978
198747,64891
198758,64793
198767,64702
198778,64624
198823,64258
198828,64223
198837,64191
198889,64110
198897,63888
198908,63847
198917,63805
198928,63816
198937,63833
198948,64110
198957,64119
198968,64195
198977,64353
198988,64421
198997,64523
199049,65046
199058,64988
199098,65674
199148,66131
199199,66008
199239,65837
199248,61179
199257,58109
199303,57105
199309,56876
199318,56887
199367,57774
199410,65390
199420,57752
199461,56934
199463,66077
199467,55991
199477,55973
199488,55984
199498,55995
199507,55937
199517,55990
199527,55985
199537,56052
199548,56067
199557,56070
199568,56084
199577,56087
199588,56168
199598,56285
199608,56436
199618,56569
199658,56770
199669,56778
199678,56837
199719,56936
199729,57002
199738,57067
199748,57158
199758,57287
199768,57397
199778,57496
199789,57619
199798,57750
199809,57875
199818,58020
199828,58196
199838,58355
199849,58544
199858,58717
199868,58876
199879,59135
199888,59915
199898,61186
199909,62535
199918,64100
199928,65849
199938,67504
199949,69194
199958,71155
199969,72924
200021,81639
200062,86310
200068,87683
200110,91122
200119,91921
200201,95599
200210,96437
200221,97001
200230,97135
200269,97949
200319,99294
200360,97833
200368,97459
200378,97128
200419,95614
200460,95098
200470,91343
200479,91095
200530,89777
200538,89383
200548,88668
200558,88152
200569,88297
200578,88053
200589,88056
200598,88057
200609,88176
200618,88341
200628,88645
200638,89086
200649,89884
200658,91500
200669,93244
200678,95577
200689,97604
200698,99483
200709,101753
200719,105489
200729,111121
200740,116180
200749,120064
200758,123001
200769,124221
200812,126148
200819,126485
200829,126574
200880,126988
200890,127122
200899,127473
200909,128205
200919,129501
200929,130867
200940,132189
200949,133054
200960,133854
200999,136331
201040,137088
201042,99483
201050,140353
201094,142614
201100,142582
201151,142013
201194,141744
201199,141906
201210,142016
201219,142067
201259,141931
201269,141889
201320,139941
201330,139175
201340,138253
201380,133920
201391,132406
201399,130400
201410,128548
201419,127182
201429,126585
201439,126184
201449,125900
201460,125758
201469,125663
201479,125593
201490,125629
201499,125587
201509,125557
201519,125522
201529,125377
201540,125330
201549,125237
201560,125242
201569,125145
201579,125078
201590,125053
201630,124964
201640,124841
201651,124727
201693,124843
201699,124751
201711,124775
201719,124726
201729,124573
201739,124544
201750,124489
201759,124454
201770,124455
201813,124386
201821,124407
201872,124327
201921,124378
201971,124846
202020,125500
202031,125563
202112,124884
202121,124891
202172,124720
202221,124625
202230,124646
202240,124519
202250,124402
202260,124218
202270,124116
202281,124013
202290,123953
202300,123851
202310,123779
202320,123735
202330,123710
202340,123638
202350,123576
202360,123483
202371,123398
202381,123306
202390,123232
202400,123149
202411,123118
202420,123019
202430,122914
202473,122680
202482,122663
202490,122592
202540,122610
202551,122613
202561,122647
202570,122666
202580,122733
202590,122745
202600,122765
202610,122696
202621,122717
202630,122660
202641,122659
202650,122591
202660,122566
202671,122589
202712,123585
202722,123723
202770,124139
202822,124175
202873,124397
202881,124442
202891,124502
202931,124749
202941,124704
203021,124760
203024,122578
203032,124719
203042,124713
203083,124592
203091,124561
203101,124455
203111,124336
203121,124215
203132,124103
203141,124031
203151,123987
203162,123976
203171,123983
203181,124049
203191,124067
203201,124176
203212,124273
203221,124300
203231,124324
203282,124404
203294,124421
203301,124528
203341,124505
203352,124433
203361,124369
203371,124276
203381,124185
203391,124125
203402,124135
203411,124105
203421,124047
203431,123985
203441,123935
203452,123911
203461,123846
203471,123810
203481,123773
203491,123727
203501,123672
203511,123613
203521,123571
203532,123590
203541,123573
203551,123539
203561,123522
203571,123520
203623,123648
203662,123726
203664,124603
203673,124044
203710,124097
203723,124515
203732,124568
203774,125329
203781,125394
203834,125662
203843,125628
203851,125593
203892,125561
203935,125478
203945,125280
203952,125174
203993,124583
204002,124592
204042,124603
204054,124569
204063,124491
204113,124274
204123,124246
204133,124157
204142,123983
204153,123775
204162,123585
204172,123455
204183,123297
204192,123141
204202,123007
204213,122874
204222,122740
204233,122625
204242,122526
204252,122458
204263,122422
204272,122414
204283,122382
204292,122298
204303,122186
204312,122108
204322,122043
204333,121988
204342,121996
204352,121974
204362,121894
204373,121853
204416,124322
204422,121670
204432,121665
204482,121608
204493,121619
204503,121625
204547,121842
204554,122006
204563,122155
204604,122409
204613,122347
204664,121890
204673,121783
204756,121167
204759,120930
204763,120935
204803,120915
204814,120901
204823,120876
204872,121031
204923,121414
204934,121527
204942,121626
204982,121840
204993,121845
205002,121900
205014,121942
205023,121996
205033,122050
205043,122120
205054,122166
205063,122216
205073,122231
205083,122252
205094,122255
205103,122253
205113,122296
205124,122292
205133,122270
205144,122260
205153,122250
205163,122255
205174,122259
205183,122270
205193,122321
205235,122355
205243,122310
205254,122396
205264,122355
205303,122381
205314,122401
205323,122459
205333,122503
205344,122536
205353,122582
205363,122596
205374,122608
205416,122639
205424,122641
205434,122627
205484,122505
205528,122486
205530,122270
205534,122344
205543,122325
205584,122183
205595,122153
205636,121931
205645,121848
205685,121578
205694,121521
205744,121610
205754,121540
205765,121519
205805,121659
205813,121714
205823,121842
205833,121981
205843,122208
205854,122563
205863,122860
205873,123234
205883,123533
205893,123814
205903,124060
205914,124246
205923,124402
205934,124543
205943,124659
205953,124753
205963,124886
205974,125018
206015,125795
206023,125976
206066,126631
206104,126792
206106,121519
206114,127262
206124,127288
206134,127239
206144,127097
206154,126834
206165,126517
206174,126177
206184,125780
206194,125239
206205,124743
206214,124342
206225,124134
206234,124062
206245,124007
206254,123937
206265,123894
206274,123809
206284,123708
206295,123625
206304,123548
206314,123404
206356,122878
206364,122805
206376,122813
206384,122836
206425,123187
206468,124706
206544,126634
206546,124743
206557,126505
206565,125940
206606,122980
206615,122577
206656,121661
206666,121502
206705,119848
206754,118492
206764,118394
206775,118375
206784,118340
206795,118324
206804,118345
206814,118347
206825,118391
206834,118474
206844,118539
206885,119009
206927,119001
206934,118961
206945,118926
206955,118940
206964,118877
206975,118856
206984,118801
206995,118871
207004,118803
207015,118835
207024,118775
207035,118806
207044,118768
207055,118816
207064,118776
207074,118766
207084,118751
207094,118745
207104,118784
207115,118838
207124,118841
207134,118909
207145,118949
207154,118922
207164,118940
207175,118984
207217,118777
207264,119335
207308,118801
207317,120066
207325,119903
207365,120024
207406,120008
207416,119991
207456,119578
207466,119505
207516,119347
207605,119268
207617,119097
207655,119346
207697,120016
207707,120022
207715,120012
207725,120018
207736,119987
207745,119972
207756,119940
207765,119897
207776,119877
207785,120032
207796,120347
207805,120244
207816,120196
207825,120092
207836,119937
207845,119792
207855,119523
207866,119326
207875,119017
207885,118676
207896,118388
207905,118031
207916,117720
207925,117497
207935,117300
207946,117158
207955,116961
207966,116966
207975,116962
208016,116919
208055,117115
208065,116838
208075,116174
208085,115401
208096,114745
208105,114222
208146,114192
208189,112937
208195,109243
208205,109222
208247,107972
208256,106396
208267,104319
208306,90584
208348,87023
208350,116957
208357,74590
208407,72213
208446,72364
208456,72369
208499,70230
208507,69973
208516,69871
208527,69865
208536,69704
208547,69100
208556,68400
208567,67749
208576,67454
208587,66986
208596,66272
208606,65105
208617,63532
208626,56276
208636,55735
208647,55884
208656,56006
208667,56080
208676,56118
208686,56142
208697,56161
208706,56154
208716,56149
208727,56106
208736,56041
208747,55955
208756,55897
208766,55841
208777,55776
208817,55736
208866,55648
208876,55604
208886,55622
208896,55605
208906,55650
208946,55942
208985,55895
208996,56068
209038,56164
209049,56147
209057,56040
209099,55739
209107,55650
209150,55733
209157,55125
209197,55082
209206,55043
209257,55187
209306,55290
209316,55306
209326,55346
209337,55384
209346,55379
209356,55388
209367,55408
209377,55394
209387,55435
209396,55442
209407,55455
209416,55438
209427,55444
209437,55426
209447,55442
209457,55533
209467,55645
209477,55509
209487,55195
209497,55190
209507,55983
209517,57161
209527,58506
209537,60070
209547,62009
209557,65030
209567,72105
209577,80923
209617,95337
209658,95351
209668,95336
209677,95321
209687,95802
209697,97307
209748,109802
209799,118314
209849,123692
209858,123817
209897,125172
209949,128882
210001,129487
210008,129236
210050,128767
210059,128727
210097,133680
210139,152856
210147,154543
210157,155722
210167,156482
210177,157124
210187,157193
210197,156307
210207,155656
210217,155201
210227,154790
210237,154242
210247,153820
210257,153225
210267,152484
210277,151420
210287,150143
210297,150363
210307,152830
210317,152715
210327,152239
210337,151715
210347,151285
210357,150861
210367,150377
210378,149745
210418,145550
210460,142262
210468,141885
210477,141456
210487,141218
210497,141203
210507,141333
210517,141562
210527,141796
210537,142068
210547,142420
210558,142870
210601,143620
210607,143438
210647,144848
210658,148266
210699,160981
210740,162516
210742,147691
210748,164216
210800,160503
210809,159602
210819,158762
210859,160634
210901,157239
210949,140971
210959,141187
210968,141232
210978,141182
210988,141127
210998,141017
211008,140839
211018,140741
211028,140653
211038,140365
211048,139857
211058,139613
211068,139617
211079,139690
211088,139850
211098,140009
211108,140101
211118,140028
211128,139972
211138,141084
211148,141168
211158,141189
211168,141227
211178,141324
211219,142109
211260,145528
211268,146254
211278,147680
211288,148583
211298,149125
211308,149459
211318,149799
211328,150192
211338,150656
211348,151034
211358,151350
211400,151644
211402,139613
211409,152613
211419,152879
211468,154613
211512,157480
211519,158115
211568,159293
211611,159290
211619,159138
211629,159011
211671,158792
211712,158732
211720,158424
211730,158382
211771,158317
211773,153223
211779,158139
211789,158131
211799,158099
211810,158116
211820,158143
211830,158192
211839,158303
211849,158442
211860,158553
211870,158683
211880,158784
211889,158840
211900,158895
211910,158933
211919,158929
211930,158938
211940,158951
211950,158964
211959,159005
211970,159035
212013,159062
212016,158867
212020,159304
212070,159819
212080,159994
212089,160131
212100,160235
212110,160310
212119,160371
212129,160427
212139,160468
212150,160497
212159,160518
212170,160504
212180,160508
212190,160487
212199,160444
212210,160374
212220,160328
212230,160284
212239,160216
212250,160175
212260,160147
212270,160174
212280,160129
212320,160146
212332,160081
212339,160033
212381,159938
212389,159959
212472,159810
212479,159794
212520,159787
212530,159719
212541,159701
212579,159510
212620,159513
212622,160129
212630,159345
212641,159240
212682,158947
212730,159528
212741,159567
212749,159539
212759,159514
212769,159453
212779,159399
212789,159305
212800,159176
212809,159115
212819,159097
212869,158663
212910,157859
212919,157532
212930,156952
212941,156166
212951,155688
212960,155325
212971,155062
212980,154848
212991,154748
213000,154666
213011,154714
213021,154993
213031,155782
213040,156291
213051,156542
213061,156524
213071,156485
213081,156465
213090,156374
213101,156083
213111,155996
213120,155956
213131,155883
213140,155807
213151,155743
213160,155683
213171,155648
213182,155620
213221,155800
213270,156137
213314,156250
213323,156241
213332,156256
213382,156121
213424,155953
213432,155890
213441,155849
213492,155893
213534,156085
213540,156090
213581,156003
213590,155928
213634,155838
213641,155829
213683,155716
213692,155736
213700,155675
213711,155709
213720,155658
213730,155650
213741,155669
213751,155644
213760,155598
213771,155612
213781,155583
213791,155556
213800,155533
213811,155490
213821,155483
213831,155458
213840,155379
213851,155383
213861,155365
213871,155324
213881,155278
213890,155193
213901,155102
213911,154998
213920,154893
213931,154796
213941,154727
213951,154667
213962,154634
213971,154650
214012,154678
214014,155751
214021,154951
214061,155321
214072,155318
214082,155323
214125,155054
214132,154955
214143,154898
214183,154848
214186,155483
214192,154628
214200,154597
214243,154424
214252,154411
214334,154250
214342,154195
214387,154111
214391,154060
214441,153941
214492,153861
214533,153833
214543,153867
214552,153887
214561,153874
214571,153875
214581,153888
214591,153896
214602,153931
214612,153919
214622,153887
214631,153824
214642,153856
214652,153815
214662,153792
214671,153708
214681,153652
214691,153627
214702,153599
214712,153590
214721,153586
214732,153613
214742,153625
214752,153642
214761,153622
214772,153654
214822,153684
214832,153658
214873,153462
214883,153466
214891,153401
214901,153383
214912,153417
214921,153399
214932,153486
214942,153552
214993,153755
215004,153896
215082,153918
215093,153826
215102,153804
215142,153709
215193,153762
215283,153760
215294,153716
215335,153527
215345,153562
215353,153451
215403,153288
215413,153245
215423,153194
215432,153157
215443,153129
215453,153108
215462,153108
215472,153071
215482,153072
215493,153029
215502,153030
215512,153023
215523,153056
215533,153023
215543,153007
215552,152947
215563,152910
215573,152855
215623,152559
215666,152510
215672,152420
215683,152431
215692,152438
215702,152442
215712,152471
215722,152507
215732,152534
215742,152545
215752,152584
215763,152623
215773,152634
215783,152630
215792,152591
215803,152611
215813,152604
215823,152560
215832,152494
215843,152511
215853,152473
215863,152445
215872,152369
215882,152301
215893,152303
215903,152261
215943,152138
215985,151970
215993,151946
216037,151963
216083,151968
216124,151935
216134,151941
216143,151882
216185,151874
216193,151859
216234,151826
216245,151824
216295,151858
216304,151834
216313,151842
216324,151809
216333,151781
216343,151765
216353,151752
216364,151749
216373,151714
216383,151691
216393,151668
216435,151560
216443,151544
216483,151423
216494,151433
216503,151395
216513,151398
216523,151398
216533,151381
216543,151393
216554,151374
216564,151422
216573,151425
216583,151458
216593,151489
216604,151468
216614,151426
216624,151382
216634,151372
216643,151338
216653,151295
216663,151263
216673,151272
216683,151239
216694,151229
216704,151268
216714,151281
216723,151282
216734,151320
216744,151323
216754,151323
216763,151315
216773,151210
216818,151177
216820,151476
216825,150837
216866,150700
216873,150703
216915,150804
216927,150818
216934,150858
216985,151000
217036,150916
217043,150875
217084,150923
217095,150979
217135,151029
217145,151013
217187,150986
217234,150943
217277,150966
217279,150895
217285,150899
217293,150875
217335,150841
217345,150847
217354,150859
217364,150868
217374,150873
217384,150862
217394,150874
217405,150863
217414,150869
217424,150875
217434,150869
217445,150837
217454,150832
217464,150806
217474,150794
217484,150774
217494,150779
217504,150767
217514,150755
217525,150781
217534,150765
217544,150789
217554,150806
217564,150807
217574,150796
217625,150777
217634,150742
217674,150765
217684,150781
217694,150791
217704,150780
217714,150784
217725,150784
217734,150760
217744,150733
217786,150669
217794,150650
217837,150602
217846,150599
217886,150609
217896,150578
217937,150557
217939,150784
217945,150554
217986,150559
217995,150511
218005,150482
218046,150472
218054,150469
218101,150461
218106,150499
218146,150454
218154,150454
218165,150471
218174,150469
218184,150469
218194,150473
218204,150434
218214,150441
218224,150434
218234,150425
218245,150423
218255,150410
218265,150407
218275,150405
218285,150419
218295,150424
218306,150446
218315,150422
218326,150445
218335,150445
218345,150457
218355,150465
218365,150457
218375,150430
218425,150420
218475,150453
218485,150458
218495,150465
218505,150464
218515,150492
218525,150494
218535,150494
218545,150492
218556,150475
218606,150458
218656,150545
218707,150608
218715,150630
218725,150632
218766,150769
218805,150793
218807,150420
218847,150914
218850,150458
218856,151064
218866,151140
218906,150492
218916,151214
218957,151156
218968,151140
218975,151144
218985,151183
218995,151164
219005,151180
219015,151180
219025,151192
219036,151230
219046,151234
219055,151198
219065,151180
219075,151169
219086,151209
219095,151180
219105,151162
219115,151205
219125,151191
219135,151229
219145,151247
219156,151323
219165,151311
219206,151292
219217,151118
219225,151036
219265,150958
219276,150965
219285,150966
219295,150954
219305,150948
219316,150934
219325,150932
219335,150916
219345,150898
219356,150901
219366,150919
219376,150924
219386,150935
219396,150958
219406,150972
219457,151016
219466,151027
219506,151109
219516,151087
219559,151064
219569,151084
219608,151077
219618,151091
219666,151194
219758,151223
219767,151243
219807,151346
219817,151381
219828,151406
219868,151280
219877,151274
219886,151267
219896,151250
219906,151253
219916,151274
219927,151340
219936,151372
219946,151397
219956,151418
219967,151428
219976,151392
219986,151356
219996,151339
220006,151305
220016,151294
220026,151302
220078,151436
220086,151426
220128,151547
220136,151575
220146,151581
220156,151609
220166,151628
220176,151609
220186,151622
220196,151624
220206,151639
220216,151609
220226,151610
220236,151619
220246,151638
220256,151615
220266,151639
220276,151648
220286,151678
220296,151709
220306,151731
220317,151774
220326,151779
220336,151770
220346,151753
220356,151752
220366,151731
220376,151735
220420,151479
220427,151772
220461,151774
220463,151547
220467,151790
220477,151773
220528,151867
220538,151882
220579,151909
220588,151936
220632,151888
220639,151896
220687,151959
220739,152004
220748,151993
220798,151929
220807,151907
220817,151905
220827,151905
220839,151906
220878,152036
220887,152059
220937,152085
220949,152103
220957,152116
220967,152134
220977,152104
220987,152144
220997,152139
221007,152149
221017,152163
221027,152174
221037,152174
221047,152196
221057,152207
221067,152211
221077,152184
221087,152226
221097,152235
221107,152255
221118,152295
221127,152268
221137,152275
221148,152314
221157,152326
221167,152348
221211,152413
221219,152433
221259,152479
221261,152095
221268,152533
221279,152484
221287,152502
221297,152472
221338,152382
221348,152405
221358,152395
221397,152424
221450,152432
221459,152434
221499,152394
221508,152393
221559,152446
221569,152475
221609,152497
221618,152525
221658,152449
221702,152392
221708,152401
221759,152376
221769,152373
221778,152330
221789,152321
221798,152294
221809,152310
221818,152312
221829,152305
221838,152327
221848,152332
221859,152321
221868,152327
221878,152334
221889,152322
221899,152325
221908,152342
221918,152356
221929,152346
221938,152360
221949,152322
221958,152323
221969,152309
222011,152235
222018,152179
222061,152199
222068,152174
222078,152203
222089,152172
222098,152159
222108,152152
222118,152131
222129,152118
222138,152079
222149,152094
222158,152063
222197,152046
222209,152022
222221,152036
222261,151994
222269,152033
222280,152081
222322,151819
222330,151742
222372,151721
222375,152192
222380,151659
222390,151680
222432,151913
222438,152040
222478,152194
222518,152131
222530,152139
222539,152131
222590,152254
222599,152258
222610,152291
222619,152297
222630,152333
222639,152391
222650,152404
222659,152441
222670,152462
222679,152501
222690,152507
222699,152541
222710,152560
222719,152567
222730,152564
222739,152575
222750,152604
222759,152613
222769,152638
222821,152659
222828,152633
222871,152605
222882,152600
222889,152590
222900,152561
222909,152570
222919,152573
222930,152592
222940,152605
222949,152616
222959,152604
222970,152606
222979,152610
222989,152611
222999,152612
223010,152619
223019,152650
223029,152653
223039,152696
223050,152734
223059,152733
223070,152722
223079,152731
223090,152760
223131,152733
223139,152695
223184,152752
223189,152772
223230,152822
223281,152803
223322,152866
223329,152860
223341,152893
223391,152832
223402,152893
223449,152800
223500,152743
223543,152808
223550,152838
223559,152800
223570,152850
223580,152862
223590,152885
223600,152891
223611,152918
223650,152947
223661,153003
223712,153016
223721,153067
223730,153089
223741,153127
223750,153170
223761,153202
223770,153231
223780,153271
223791,153293
223801,153315
223810,153347
223820,153380
223831,153412
223841,153459
223850,153521
223860,153558
223871,153569
223880,153585
223890,153556
223900,153584
223911,153611
223921,153669
223930,153690
223940,153726
223951,153740
223961,153914
223970,154001
224015,154194
224021,154310
224030,154366
224071,154501
224112,154508
224115,153231
224122,154331
224131,154246
224173,153806
224181,153812
224222,153449
224232,153569
224272,153109
224321,154250
224363,153403
224371,153577
224412,153680
224422,153378
224471,153518
224521,153659
224531,153647
224540,153646
224551,153586
224561,153527
224570,153475
224581,153496
224590,153544
224600,153541
224611,153557
224622,153533
224631,153496
224642,153392
224652,153331
224661,153301
224671,153344
224681,153459
224692,153614
224701,153701
224711,153781
224722,153833
224731,153808
224741,153805
224752,153805
224762,153849
224771,153878
224817,153931
224822,154035
224865,154079
224872,154075
224882,154018
224891,154005
224901,153993
224912,153982
224921,153965
224931,153972
224973,153957
224981,153851
225022,153661
225032,153718
225071,154009
225123,154224
225171,154532
225181,154568
225232,154842
225283,154454
225291,154330
225332,154426
225341,154436
225351,154407
225361,154410
225371,154414
225382,154499
225392,154499
225402,154467
225411,154452
225421,154434
225432,154494
225442,154493
225451,154474
225461,154482
225472,154513
225481,154472
225491,154415
225501,154365
225512,154394
225522,154436
225531,154451
225541,154561
225552,154675
225562,154734
225571,154720
225617,154495
225623,154544
225632,154509
225671,154416
225683,154379
225693,154335
225702,154278
225711,154229
225722,154205
225732,154211
225776,154240
225785,154200
225794,154101
225834,153570
225843,153505
225884,153520
225893,153564
225942,153750
225984,153932
225991,153947
226005,153863
226055,153128
226062,153106
226114,153465
226123,153284
226164,153505
226173,152548
226183,152485
226192,152333
226202,152193
226213,152273
226223,152426
226232,152482
226242,152469
226253,152387
226262,152187
226273,151816
226283,151147
226292,151152
226302,151227
226312,151290
226322,151346
226333,151417
226342,151277
226353,150923
226362,150535
226373,150249
226417,149791
226423,149708
226466,149689
226468,153284
226474,149843
226484,149950
226493,150012
226502,150049
226512,150040
226523,150087
226533,150098
226542,150085
226553,150106
226563,150117
226572,150135
226582,150165
226592,150207
226603,150257
226612,150202
226653,150225
226662,150254
226704,150270
226713,150217
226753,150088
226763,149966
226806,149981
226814,150010
226853,149808
226863,149762
226906,149621
226915,149549
226996,149628
227003,149580
227013,149613
227055,149675
227065,149670
227073,149694
227083,149687
227093,149673
227103,149662
227113,149594
227123,149544
227133,149475
227143,149500
227154,149516
227163,149594
227174,149636
227184,149686
227193,149643
227203,149596
227214,149585
227223,149652
227233,149811
227244,150134
227253,150541
227263,150797
227305,151050
227314,151057
227324,151110
227365,151230
227367,149639
227374,151120
227384,150966
227393,150788
227404,150614
227413,150471
227423,150445
227433,150488
227443,150555
227453,150638
227464,150640
227473,150554
227483,150585
227493,150586
227503,150551
227555,150681
227563,150661
227604,150700
227644,150747
227647,151077
227653,150483
227696,150526
227699,151057
227705,150985
227716,151082
227724,151117
227765,151252
227775,151212
227783,151134
227835,150753
227876,150560
227883,150727
227935,150824
227944,150812
227954,150840
227964,150852
227974,150871
227984,150893
228024,150897
228034,151048
228044,151074
228087,151076
228094,151117
228104,151080
228115,151070
228124,151073
228135,151050
228144,151041
228154,151030
228164,151035
228175,151028
228184,150979
228194,150961
228204,150930
228215,150909
228224,150873
228234,150830
228245,150796
228254,150785
228264,150762
228274,150794
228284,150871
228295,150896
228304,150914
228315,150904
228325,150905
228334,150913
228344,150851
228354,150838
228364,150730
228375,150566
228417,149690
228424,149799
228434,149841
228476,151030
228485,150459
228526,150649
228536,150683
228545,150693
228586,150565
228595,150564
228639,150637
228645,150719
228687,150654
228695,150507
228745,150375
228786,150242
228797,150466
228805,150523
228847,150564
228886,150584
228895,150437
228905,150444
228948,150338
228955,150317
228964,150283
228976,150332
228985,150361
228995,150409
229005,150480
229016,150502
229025,150501
229036,150502
229045,150500
229055,150484
229066,150463
229075,150433
229086,150376
229095,150249
229105,149992
229115,149617
229125,149219
229136,149145
229145,149193
229155,149406
229165,149906
229176,150667
229216,152287
229226,152437
229236,152572
229285,153209
229295,154110
229305,154244
229316,154247
229325,154188
229335,153479
229345,153191
229356,153176
229397,153152
229406,153098
229416,152945
229456,149145
229466,148490
229506,152131
229555,148961
229596,151530
229608,154538
229615,152711
229625,150545
229665,152039
229715,154163
229725,153773
229776,153577
229785,154361
229795,154482
229805,154482
229815,154330
229826,154092
229835,153866
229845,153845
229856,154119
229865,154466
229875,154693
229885,154619
229895,154531
229905,154514
229916,154568
229925,154599
229935,154680
229946,154752
229956,154781
229965,154697
229976,154610
230019,154005
230026,153895
230035,154017
230087,153982
230095,153895
230107,153763
230116,153771
230127,153863
230136,153863
230147,153794
230156,153699
230167,153643
230217,153934
230261,153905
230267,153841
230307,154072
230317,154046
230359,154017
230366,154353
230409,154455
230417,154567
230461,154581
230468,154613
230519,154914
230528,154936
230569,154941
230578,155045
230586,155150
230637,155197
230646,155230
230657,155305
230666,155328
230677,155366
230686,155406
230696,155432
230707,155494
230716,155513
230726,155574
230737,155630
230746,155667
230757,155749
230766,155780
230776,155808
230786,155841
230830,155734
230837,155603
230846,155529
230897,155316
230906,155205
230917,155157
230926,154955
230937,154764
230946,154418
230957,153940
230966,154083
230976,153535
230987,153424
230996,153300
231006,153336
231017,153394
231026,153282
231036,153101
231046,152815
231057,152562
231066,152367
231076,152315
231086,152262
231097,152154
231106,151988
231117,151857
231127,151765
231136,151755
231178,151980
231220,152031
231229,151897
231269,151924
231276,151883
231323,151837
231327,151775
231377,151469
231387,151499
231397,151621
231437,153167
231481,152779
231488,152517
231531,152310
231537,152776
231578,151860
231588,153569
231638,153736
231649,153849
231657,153904
231698,154368
231707,154495
231717,154582
231728,154576
231738,154409
231747,154081
231758,153902
231767,153827
231778,153904
231787,154010
231798,154045
231807,154088
231818,154192
231827,154283
231838,154408
231847,154530
231858,154780
231867,154937
231878,154955
231887,154915
231898,154842
231907,154800
231918,154839
231927,154698
231938,154357
231947,154201
231957,154078
231968,154194
231977,154519
232018,153293
232028,153163
232038,153076
232079,152918
232089,153082
232130,153810
232137,153880
232178,153943
232187,153998
232228,154164
232237,154294
232279,154340
232288,154637
232338,155316
232389,156306
232432,157280
232438,157603
232448,157913
232499,159286
232508,159406
232518,159617
232528,159793
232538,160095
232548,160426
232558,160769
232568,161018
232579,161258
232588,161461
232598,161645
232609,161808
232618,161992
232629,162181
232638,162374
232649,162521
232658,162725
232669,162842
232678,162869
232688,162721
232699,162428
232708,162091
232718,161653
232729,161366
232738,161439
232749,161504
232758,161453
232769,161324
232778,161188
232820,161263
232830,161525
232838,161677
232880,162236
232888,162310
232938,162063
232980,161673
232989,161681
233030,161519
233039,161484
233049,161416
233098,161213
233144,161072
233149,161003
233199,161365
233208,161171
233219,161043
233228,161032
233239,160971
233281,161042
233288,161142
233300,161290
233349,161539
233359,161500
233369,161488
233379,161571
233389,161600
233399,162142
233409,162800
233419,163278
233429,163297
233439,163386
233449,163475
233459,163339
233469,163366
233479,163265
233489,163250
233499,163116
233509,162906
233519,162761
233529,162674
233539,162774
233549,162703
233559,162690
233569,162562
233579,162281
233622,161290
233629,161333
233639,161099
233689,160418
233700,160232
233742,161614
233750,161327
233799,161410
233851,164268
233890,164316
233900,163319
233941,161641
233951,161202
233992,163442
234001,164315
234042,163961
234049,164807
234100,164822
234110,164829
234160,164426
234170,164456
234179,164452
234189,164505
234199,164543
234209,164520
234219,164477
234229,164416
234239,164316
234249,164271
234259,164160
234269,164065
234279,163907
234289,163750
234299,163602
234309,163330
234319,163074
234329,162973
234339,163036
234349,163109
234360,163204
234369,163266
234379,163312
234422,163496
234431,163500
234441,163515
234491,163871
234499,163916
234510,163947
234520,164005
234530,164035
234540,164044
234550,164066
234593,164088
234600,164152
234652,164275
234694,164478
234700,164578
234780,164974
234790,165086
234800,165050
234840,164582
234850,164500
234901,163850
234910,163933
234960,163523
234970,163444
234980,163347
234990,163339
235000,163264
235010,163194
235020,163121
235030,163005
235040,162813
235050,162729
235060,162674
235070,162666
235081,162675
235090,162650
235100,162633
235110,162577
235120,162425
235130,162317
235140,162223
235150,162132
235160,162095
235170,162040
235180,161916
235221,161609
235231,161545
235241,161462
235250,161334
235291,161300
235300,161299
235310,161432
235320,161502
235330,161505
235340,161481
235350,161328
235360,161118
235370,160954
235380,160777
235390,160574
235400,160407
235410,160285
235420,160210
235430,160120
235440,160087
235450,160041
235460,160021
235511,159761
235521,159586
235571,159004
235613,158203
235622,157725
235662,157340
235664,161502
235672,155997
235713,155787
235724,155624
235732,155510
235775,155424
235782,155487
235831,156008
235843,156065
235852,156166
235902,162607
235911,162791
235921,162947
235932,162930
235942,162837
235952,162557
235961,162185
235972,161529
235982,160898
235992,160322
236001,160204
236012,160216
236021,160406
236032,160524
236041,160608
236084,160646
236092,160820
236103,160654
236111,160581
236153,160021
236162,159785
236171,159663
236181,159686
236191,159699
236201,159667
236211,159663
236221,159651
236231,159721
236241,159745
236251,159739
236261,159710
236271,159726
236281,159653
236292,159643
236302,159676
236312,159687
236321,159671
236332,159720
236341,159708
236351,159715
236361,159718
236371,159727
236381,159732
236422,159645
236431,159617
236475,159466
236484,159521
236492,159524
236533,159439
236541,159359
236552,159347
236595,159346
236597,159739
236602,159296
236611,159192
236655,159201
236661,159187
236712,158740
236722,158602
236763,158178
236773,158154
236815,158113
236817,159518
236864,158342
236873,158402
236883,158474
236923,158250
236934,158165
236943,158105
236985,157982
236993,158102
237002,158580
237013,158741
237023,158766
237032,158750
237042,158718
237053,158730
237063,158727
237072,158744
237083,158752
237092,158741
237103,158765
237112,158707
237122,158684
237133,158667
237143,158687
237152,158709
237162,158726
237173,158714
237183,158712
237223,158733
237234,158738
237272,158624
237313,158540
237324,158602
237332,158671
237343,158725
237352,158733
237362,158716
237373,158690
237383,158655
237392,158564
237402,158516
237413,158461
237423,158411
237432,158341
237442,158250
237453,158168
237463,158105
237472,158074
237483,158071
237492,158084
237532,157801
237543,157764
237553,157720
237596,157195
237602,157136
237722,157073
237733,156991
237743,157053
237752,157036
237804,156776
237848,156291
237853,156251
237895,156154
237903,156080
237913,156039
237923,155975
237933,155883
237943,155812
237953,155821
237964,155860
237974,155903
237984,155912
237994,155847
238003,155647
238095,155021
238103,154966
238114,155018
238123,155225
238133,155154
238143,155046
238154,154949
238163,154832
238174,154729
238184,154603
238194,154508
238203,154393
238214,154254
238224,154110
238234,153934
238243,153862
238254,153853
238264,153994
238274,154122
238284,154360
238293,154808
238304,155381
238314,155927
238323,156127
238333,156191
238344,156210
238354,156220
238363,156296
238374,156343
238423,157044
238463,157253
238509,157629
238514,157916
238525,158067
238565,158451
238613,158920
238665,159027
238676,158368
238716,158598
238765,160018
238805,161400
238886,161728
238893,162711
238903,162947
238943,163415
238955,163373
238964,163309
238974,163404
238984,163574
238994,163699
239005,163891
239015,164111
239025,164313
239034,164528
239044,164754
239054,164988
239064,165277
239074,165510
239084,165417
239095,165545
239105,165614
239114,165494
239124,165563
239135,165643
239145,166043
239154,166202
239164,166299
239174,166335
239224,166482
239275,166383
239285,166384
239294,166391
239304,166402
239314,166436
239325,166455
239335,166518
239345,166551
239354,166629
239364,166779
239374,166938
239384,167003
239394,167039
239446,166527
239497,166221
239538,166813
239544,167002
239584,166875
239595,167171
239636,168898
239677,171067
239685,171059
239725,169696
239736,169276
239744,169840
239754,169841
239835,170806
239845,170766
239855,170844
239864,170990
239874,171066
239884,171111
239895,171171
239905,171209
239914,171214
239924,171179
239934,171129
239944,171083
239954,170994
239964,170719
239975,170682
239985,170602
239994,170506
240005,170444
240015,170370
240025,170324
240034,170201
240045,170076
240095,170372
240105,170495
240115,170649
240125,170729
240135,170780
240145,170848
240156,170887
240166,170959
240176,171037
240186,171108
240195,171183
240205,171133
240215,171117
240225,170914
240266,170836
240268,171179
240276,171139
240315,171307
240317,170994
240326,171990
240376,172526
240387,172629
240428,172771
240436,172848
240446,172897
240456,172902
240466,172942
240475,172988
240485,173014
240495,173063
240505,173081
240516,173067
240526,173104
240536,173119
240546,173144
240555,173174
240565,173118
240575,173179
240585,173183
240596,173214
240606,173226
240616,173201
240626,173095
240635,172982
240645,172849
240655,172758
240665,172806
240675,172862
240686,172943
240696,172953
240706,172942
240715,172913
240725,172814
240735,172664
240745,172532
240756,172448
240766,172267
240817,171785
240825,171706
240836,171784
240846,171867
240856,171924
240866,171947
240875,171966
240885,172014
240931,172428
240935,172439
240978,172285
240987,172174
241037,171679
241078,171729
241085,171855
241095,171950
241106,172087
241115,172103
241125,172184
241135,172273
241145,172313
241156,172312
241166,172344
241176,172397
241186,172483
241237,172575
241247,172544
241256,172617
241266,172808
241276,173061
241286,173140
241296,173294
241306,173371
241316,173469
241327,173578
241336,173800
241346,174067
241356,174247
241366,174406
241376,174546
241386,174731
241397,174744
241406,174724
241416,174697
241426,174722
241437,174700
241446,174636
241456,174627
241466,174449
241476,174149
241486,173796
241496,173296
241506,172734
241517,171743
241526,171181
241536,171068
241546,171199
241557,171571
241566,172262
241609,172541
241611,172808
241649,172365
241651,173140
241658,170823
241669,170582
241708,170495
241718,170231
241727,170098
241777,170148
241786,169987
241797,169917
241807,169904
241817,169886
241827,169857
241836,169853
241846,169762
241856,169745
241866,169745
241876,169834
241887,169895
241897,169893
241907,169912
241916,169915
241926,169846
241936,169830
241946,169782
241957,169822
241967,169797
242017,169925
242026,169975
242036,170008
242046,170062
242056,170100
242066,170085
242077,170122
242087,170145
242097,170127
242107,170109
242116,170039
242126,169992
242136,169911
242146,169860
242157,169846
242167,169823
242177,169770
242187,169762
242196,169793
242206,169802
242216,169769
242226,169823
242236,169826
242246,169804
242257,169823
242267,169805
242308,169752
242310,169797
242318,169751
242327,169759
242371,169975
242377,169747
242430,169693
242478,169694
242487,169704
242497,169696
242507,169687
242518,169678
242527,169720
242537,169719
242547,169733
242558,169790
242567,169810
242577,169831
242587,169849
242598,169855
242607,169824
242617,169852
242627,169840
242638,169814
242647,169805
242657,169845
242667,169816
242677,169831
242687,169806
242697,169819
242707,169890
242717,169985
242727,170058
242737,169955
242747,169891
242758,169931
242767,170008
242777,169903
242817,169903
242827,169867
242837,169885
242847,169893
242857,169893
242867,170009
242878,169898
242887,169799
242897,169842
242907,169929
242918,170046
242927,170031
242937,169959
242947,169931
242958,169933
242967,169906
242977,169908
243020,170167
243027,170160
243068,170201
243071,170058
243077,170639
243088,170912
243132,171894
243179,168913
243221,167320
243223,169893
243227,168717
243237,168218
243247,167967
243257,167903
243267,167904
243278,168080
243287,168107
243297,168172
243307,168222
243318,168237
243328,168236
243337,168168
243347,168219
243358,168293
243368,168348
243378,168275
243388,168020
243397,168019
243407,168408
243417,168654
243428,168708
243438,168738
243448,168777
243458,168791
243468,168686
243479,168603
243488,168536
243499,168499
243508,168496
243518,168429
243528,168332
243538,168203
243548,168015
243558,167869
243568,167634
243611,166696
243618,166562
243629,166319
243638,166087
243648,165997
243658,165945
243668,165782
243678,165596
243688,165447
243730,164643
243740,164289
243781,162169
243818,158664
243828,157782
243838,156928
243848,156163
243858,155566
243868,155002
243878,154500
243888,154071
243898,153826
243908,153717
243918,153738
243928,153788
243938,153851
243948,153901
243958,153993
243968,154100
244018,155029
244029,155173
244039,155345
244049,155473
244058,155502
244069,155558
244079,155638
244089,155776
244099,156032
244109,156356
244118,156589
244159,157608
244169,157763
244179,157962
244189,158240
244199,158449
244209,158607
244219,158704
244228,158842
244239,159164
244248,159477
244259,159414
244268,159461
244278,159988
244288,160320
244298,160418
244308,160560
244318,160606
244328,160611
244370,160652
244378,160858
244389,161089
244431,161240
244438,160872
244479,158444
244492,157953
244530,156345
244539,155911
244549,155431
244559,154916
244569,154367
244579,153832
244589,153337
244599,152828
244609,152372
244619,151968
244629,151681
244639,151529
244649,151397
244659,151323
244669,151295
244679,151270
244689,151262
244699,151340
244709,151399
244719,151184
244729,150752
244739,150328
244749,149872
244759,149373
244769,148948
244820,149380
244830,149513
244839,149471
244849,149286
244859,149072
244869,148872
244879,148649
244889,148541
244900,148358
244909,148164
244919,147988
244929,147940
244939,147892
244949,147890
244959,147882
244969,147955
244979,148037
244989,148121
244999,148187
245009,148254
245019,148298
245029,148303
245039,148348
245080,148424
245091,148478
245129,148494
245132,148635
245181,148711
245191,148807
245233,148978
245281,148974
245290,148941
245331,148893
245339,148874
245349,148924
245359,149044
245369,149133
245379,149198
245389,149223
245399,149215
245409,149203
245419,149154
245429,149118
245439,149120
245449,149126
245459,149111
245469,149131
245479,149072
245490,149059
245500,148999
245510,148913
245519,148838
245529,148748
245540,148671
245550,148602
245560,148573
245570,148515
245621,148248
245630,148231
245641,148198
245650,148218
245660,148224
245670,148248
245680,148292
245690,148293
245700,148282
245710,148283
245720,148251
245731,148241
245740,148246
245750,148239
245760,148234
245770,148219
245780,148201
245790,148192
245800,148144
245810,148111
245820,148068
245830,148048
245881,148073
245922,148030
245932,147991
245971,148023
245973,148231
245982,147973
246025,147848
246031,147882
246041,147903
246050,147851
246060,147771
246070,147623
246080,147489
246090,147341
246100,147428
246110,147214
246120,146949
246130,146695
246140,146490
246150,146320
246160,146185
246170,146071
246180,146017
246190,146002
246200,146004
246210,145979
246220,145962
246230,146016
246240,146107
246250,146178
246260,146189
246270,146174
246280,146169
246290,146152
246300,146147
246310,146135
246320,146125
246330,146123
246341,146150
246350,146116
246360,146103
246370,146072
246423,145820
246431,145856
246440,145916
246450,146004
246460,146098
246470,146208
246480,146285
246525,146481
246572,146361
246611,146446
246613,146174
246663,146812
246671,146822
246681,146851
246692,146893
246701,146927
246712,146922
246721,146944
246732,146997
246741,147059
246752,147130
246761,147221
246772,147338
246781,147477
246831,147502
246841,147358
246851,147200
246862,147066
246871,146956
246881,146880
246892,146823
246901,146744
246911,146694
246921,146605
246932,146560
246941,146594
246952,146615
246961,146605
246972,146712
246981,146777
246992,146795
247001,146707
247012,146615
247021,146456
247032,146320
247042,146223
247051,146177
247062,146195
247071,146196
247081,146123
247091,146040
247102,145889
247111,145631
247121,145365
247132,145160
247141,144985
247152,144900
247161,144797
247204,144210
247243,144048
247283,143967
247292,143192
247337,143167
247342,143169
247351,143183
247361,143219
247371,143182
247381,143162
247391,143132
247402,143136
247411,143014
247421,142951
247431,142954
247441,143015
247451,143110
247461,143113
247471,143137
247481,143149
247491,143215
247501,143271
247511,143406
247522,143593
247531,143765
247541,143912
247551,144019
247562,144108
247571,144193
247622,144338
247632,144403
247642,144412
247652,144376
247663,144388
247672,144403
247682,144436
247693,144500
247702,144565
247713,144692
247722,144772
247733,144813
247742,144823
247752,144820
247762,144811
247773,144801
247782,144763
247792,144744
247802,144704
247813,144677
247822,144671
247832,144649
247842,144652
247886,144789
247894,144871
247944,144824
247953,144888
247962,144897
247972,144984
247982,145049
247992,145113
248002,145152
248012,145168
248022,145168
248032,145160
248074,145164
248082,145171
248093,145117
248102,145073
248113,145059
248122,144997
248133,144962
248142,144973
248152,144947
248163,144945
248172,144934
248182,144982
248193,145013
248236,145001
248244,144844
248293,144894
248306,144930
248313,144935
248323,144921
248332,144902
248343,144915
248352,144884
248362,144878
248373,144861
248382,144827
248392,144790
248402,144767
248413,144771
248422,144701
248432,144705
248442,144698
248453,144698
248462,144639
248472,144619
248482,144625
248527,144813
248534,144840
248542,144818
248552,144830
248563,144865
248572,144863
248583,144880
248592,144859
248602,144845
248613,144857
248622,144814
248633,144792
248643,144729
248653,144659
248664,144560
248673,144454
248684,144301
248693,144152
248703,143956
248714,143792
248723,143615
248733,143480
248744,143382
248753,143314
248763,143311
248773,143337
248816,143815
248857,144377
248862,144479
248903,144611
248915,144719
248924,144564
248963,144427
248976,144358
249023,144030
249034,144045
249044,144018
249054,143986
249063,143959
249074,143930
249083,143914
249094,143876
249103,143826
249114,143771
249123,143701
249134,143671
249143,143635
249154,143596
249163,143584
249174,143561
249216,143259
249224,143252
249233,143231
249243,143262
249254,143304
249263,143353
249274,143452
249283,143560
249294,143704
249303,143876
249314,144047
249323,144182
249334,144339
249343,144403
249354,144485
249363,144544
249374,144633
249383,144664
249394,144754
249403,144752
249414,144843
249423,144878
249433,144899
249443,144983
249454,145108
249463,145105
249474,145203
249483,145186
249493,145238
249504,145288
249513,145231
249564,145350
249604,145349
249607,143353
249616,145388
249625,145407
249665,145278
249714,145490
249724,145519
249734,145551
249745,145569
249754,145610
249765,145649
249774,145698
249784,145748
249794,145795
249805,145839
249814,145867
249824,145886
249834,145914
249845,145937
249854,145945
249864,145932
249874,145922
249884,145929
249894,145920
249905,145956
249914,145990
249925,145996
249934,146049
249944,146073
249954,146111
249965,146123
249974,146152
250026,146148
250036,146147
250044,146121
250054,146147
250065,146118
250074,146118
250085,146097
250094,146139
250104,146128
250114,146133
250125,146156
250134,146205
250144,146214
250154,146206
250165,146186
250174,146205
250184,146201
250194,146206
250205,146236
250214,146284
250258,146049
250264,146397
250315,146408
250324,146424
250408,146414
250416,146381
250455,146337
250457,146133
250465,146355
250475,146376
250484,146350
250495,146389
250504,146338
250514,146300
250524,146308
250534,146312
250544,146324
250554,146336
250564,146348
250574,146332
250584,146318
250594,146309
250605,146325
250614,146295
250624,146275
250634,146313
250645,146311
250654,146253
250664,146285
250674,146266
250684,146279
250695,146300
250704,146303
250714,146343
250724,146338
250735,146365
250744,146396
250755,146399
250765,146396
250776,146450
250817,146523
250825,146467
250836,146478
250845,146492
250855,146496
250865,146509
250876,146524
250886,146538
250895,146523
250905,146507
250916,146493
250965,146571
250977,146604
251067,146561
251076,146552
251085,146520
251096,146526
251105,146555
251115,146609
251125,146615
251135,146648
251146,146633
251155,146640
251165,146646
251175,146608
251220,146540
251226,146521
251235,146528
251246,146529
251255,146503
251266,146522
251275,146478
251285,146491
251295,146483
251306,146518
251315,146518
251325,146578
251335,146549
251346,146596
251355,146570
251365,146628
251375,146632
251385,146636
251396,146673
251406,146690
251415,146655
251425,146655
251436,146702
251446,146693
251455,146663
251465,146639
251476,146672
251485,146646
251495,146619
251506,146638
251515,146608
251525,146597
251535,146580
251546,146603
251555,146530
251565,146549
251617,146874
251627,146912
251666,146844
251676,146803
251719,146854
251766,146763
251777,146731
251786,146688
251795,146699
251805,146665
251816,146645
251826,146649
251835,146691
251845,146714
251855,146747
251898,146770
251906,146805
251917,146808
251926,146791
251936,146768
251946,146792
251956,146754
251966,146753
251977,146745
251987,146737
251997,146741
252007,146741
252047,146757
252057,146778
252066,146768
252076,146766
252087,146777
252096,146805
252107,146794
252116,146809
252126,146840
252137,146805
252146,146821
252157,146787
252166,146805
252177,146753
252186,146763
252197,146753
252206,146746
252217,146773
252226,146774
252236,146759
252247,146793
252256,146808
252266,146802
252276,146828
252286,146866
252296,146864
252306,146857
252316,146872
252326,146935
252337,146954
252346,146997
252357,147011
252366,147025
252377,147055
252418,146944
252427,146924
252436,146908
252447,146932
252456,146934
252466,146911
252476,146920
252487,146939
252496,146949
252546,147021
252556,147046
252595,147003
252608,147022
252617,146998
252659,147032
252667,146989
252709,146884
252716,146860
252726,146876
252737,146906
252746,146885
252756,146908
252766,146894
252776,146925
252787,146937
252796,146939
252807,146956
252850,146958
252857,146947
252867,147002
252877,146984
252888,146999
252897,146992
252907,147032
252917,147005
252927,147033
252938,147031
252947,147039
252957,147057
252968,147056
252977,147066
252987,147068
252997,147088
253007,147090
253018,147090
253027,147104
253037,147144
253048,147126
253057,147135
253067,147104
253077,147103
253088,147119
253097,147126
253107,147116
253117,147118
253127,147098
253137,147056
253147,147036
253158,147025
253167,147044
253178,147022
253219,147005
253270,147076
253278,147069
253317,147093
253368,147087
253378,147148
253420,147063
253427,147059
253438,147080
253447,147023
253458,147059
253467,147069
253477,147073
253487,147089
253497,147102
253507,147126
253517,147136
253527,147142
253537,147170
253547,147152
253558,147196
253567,147165
253578,147176
253622,147116
253628,147053
253638,147032
253647,147026
253657,146978
253667,146999
253677,146975
253687,146992
253697,147003
253708,147068
253717,147025
253727,147025
253738,147032
253747,146989
253757,146963
253768,146970
253777,146929
253787,146947
253797,146939
253807,146962
253818,146972
253827,146976
253838,147015
253848,147037
253858,147078
253867,147087
253878,147091
253888,147065
253899,147077
253908,147094
253919,147099
253959,147145
253997,147210
254009,147244
254059,147274
254069,147321
254112,146947
254119,147226
254128,147244
254138,147260
254148,147279
254158,147287
254169,147294
254178,147291
254188,147310
254198,147343
254208,147346
254219,147343
254228,147337
254238,147300
254249,147301
254258,147291
254268,147258
254278,147255
254289,147251
254298,147261
254308,147266
254318,147245
254328,147265
254339,147296
254348,147340
254359,147356
254368,147393
254379,147438
254419,147477
254429,147448
254439,147432
254448,147428
254458,147409
254468,147349
254478,147337
254489,147353
254498,147327
254508,147317
254518,147281
254528,147324
254539,147389
254548,147404
254559,147442
254568,147386
254579,147438
254588,147401
254599,147394
254608,147293
254652,147238
254688,147252
254700,147266
254709,147252
254750,147386
254789,147335
254801,147352
254843,147362
254849,147349
254859,147341
254870,147368
254879,147354
254889,147387
254900,147374
254909,147402
254919,147442
254929,147449
254940,147453
254949,147473
254959,147496
254969,147491
254980,147485
254989,147479
254999,147499
255009,147484
255020,147466
255029,147491
255039,147496
255049,147506
255060,147525
255069,147529
255079,147537
255089,147535
255099,147520
255109,147521
255120,147504
255129,147525
255139,147523
255149,147494
255160,147488
255169,147449
255179,147431
255223,147401
255230,147449
255239,147410
255249,147425
255260,147396
255269,147415
255279,147427
255290,147437
255299,147450
255350,147288
255393,147529
255428,147106
255440,147114
255449,147148
255459,147189
255469,147200
255480,147249
255489,147218
255499,147223
255510,147238
255519,147200
255529,147173
255540,147217
255549,147190
255559,147199
255569,147179
255580,147202
255622,147032
255631,146985
255639,146963
255650,146977
255659,146919
255669,146917
255680,146896
255689,146824
255699,146786
255710,146749
255719,146675
255729,146606
255740,146592
255749,146499
255759,146354
255770,146256
255779,146099
255789,146046
255800,145986
255809,145856
255820,145766
255829,145644
255840,145504
255849,145400
255860,145322
255871,145252
255880,145217
255891,145190
255900,145184
255910,145186
255920,145199
255930,145231
255941,145281
255950,145341
255991,145527
256032,145632
256041,145659
256083,145617
256092,145680
256100,145704
256111,145734
256121,145772
256131,145817
256141,145887
256150,145903
256160,145887
256170,145861
256181,145849
256220,145841
256223,145217
256231,145827
256240,145812
256250,145788
256261,145704
256270,145698
256281,145690
256290,145696
256301,145818
256311,145944
256321,145989
256365,146231
256372,146341
256462,146237
256471,146170
256481,146217
256490,146181
256500,146165
256511,146200
256520,146185
256530,146183
256541,146256
256550,146237
256560,146213
256571,146260
256580,146267
256590,146260
256601,146331
256610,146297
256620,146290
256630,146234
256640,146163
256651,146204
256660,146141
256670,146199
256681,146246
256690,146232
256700,146240
256711,146273
256720,146209
256730,146207
256741,146235
256750,146210
256761,146213
256770,146081
256780,145976
256822,145735
256830,145511
256841,145373
256851,145221
256860,145059
256871,144955
256880,144832
256891,144666
256902,144573
256911,144957
256955,145570
256962,145613
257012,145094
257023,144876
257070,142913
257082,142544
257091,142168
257102,141822
257111,141548
257122,141340
257131,141224
257142,141137
257151,141089
257162,141076
257171,141325
257212,141566
257222,141635
257231,141738
257241,141926
257252,142094
257261,142191
257272,142198
257281,142149
257292,142193
257301,142269
257312,142319
257321,142375
257332,142426
257341,142471
257352,142506
257361,142574
257372,142593
257381,142647
257392,142634
257401,142678
257412,142697
257421,142700
257432,142702
257441,142691
257452,142719
257461,142757
257471,142825
257482,142911
257491,142969
257501,143006
257512,143057
257521,143103
257531,143154
257541,143202
257552,143318
257561,143333
257612,143323
257654,143517
257662,143573
257672,143663
257713,143984
257721,144043
257732,144088
257777,144092
257781,144142
257792,144167
257801,144164
257811,144209
257822,144254
257831,144228
257841,144260
257852,144261
257861,144276
257871,144330
257882,144336
257891,144366
257902,144407
257911,144424
257921,144454
257932,144529
257943,144572
257952,144605
257963,144590
257972,144630
258013,144767
258023,144797
258032,144829
258042,144794
258053,144781
258062,144769
258072,144690
258082,144738
258093,144757
258102,144802
258112,144849
258122,144874
258133,144899
258142,144922
258152,144906
258162,144929
258173,144925
258182,144911
258192,144878
258202,144920
258213,144878
258222,144867
258232,144922
258242,144953
258253,144913
258262,144910
258272,144991
258324,145058
258333,145011
258374,145013
258384,144951
258465,145336
258474,145349
258484,145358
258524,145440
258533,145492
258542,145486
258552,145460
258562,145448
258573,145473
258582,145440
258592,145427
258602,145421
258613,145479
258622,145481
258632,145521
258642,145591
258652,145706
258663,145728
258672,145762
258682,145763
258693,145855
258702,145900
258712,145978
258723,146050
258732,146138
258743,146285
258752,146378
258763,146498
258772,146521
258816,146705
258824,146721
258832,146704
258842,146615
258853,146534
258862,146431
258872,146403
258882,146431
258893,146466
258902,146443
258912,146360
258922,146276
258933,146139
258942,146020
258952,145970
258963,145947
258972,145940
258983,145904
258993,145865
259003,145861
259013,145847
259023,145821
259033,145811
259074,145917
259085,145869
259133,146057
259174,146213
259185,146224
259227,146451
259233,146452
259244,146468
259253,146466
259264,146466
259273,146467
259284,146502
259293,146519
259304,146502
259313,146493
259324,146460
259333,146443
259344,146434
259353,146421
259364,146427
259373,146418
259384,146387
259393,146391
259404,146270
259413,146082
259424,145914
259433,145775
259443,145773
259454,145786
259463,145833
259474,145862
259483,145873
259494,145880
259503,145896
259514,145902
259523,145902
259534,145883
259543,145837
259554,145765
259563,145694
259574,145613
259614,145357
259623,145346
259634,145287
259643,145280
259654,145221
259663,145147
259674,145096
259683,144995
259729,144789
259735,144770
259744,144765
259785,144721
259824,144752
259835,144781
259848,144769
259855,144753
259863,144652
259873,144603
259884,144582
259893,144562
259904,144540
259913,144546
259925,144614
259933,144626
259984,144948
259993,144924
260003,144954
260015,144992
260023,144947
260034,144933
260044,144899
260053,144794
260063,144751
260074,144733
260083,144710
260123,144747
260135,144717
260143,144682
260154,144729
260164,144715
260174,144755
260184,144807
260194,144820
260204,144840
260214,144849
260224,144826
260234,144800
260244,144803
260254,144765
260264,144755
260274,144740
260284,144739
260294,144738
260304,144737
260314,144732
260324,144740
260334,144769
260344,144823
260354,144878
260364,144931
260375,144988
260415,145087
260425,145086
260434,145098
260444,145112
260454,145125
260464,145112
260474,145129
260484,145103
260494,145128
260504,145138
260514,145155
260524,145207
260534,145248
260544,145299
260554,145328
260564,145316
260574,145311
260584,145291
260594,145273
260636,145220
260646,145242
260694,145209
260738,145176
260745,145173
260785,145119
260794,145113
260875,145114
260887,145127
260895,145151
260904,145110
260914,145115
260924,145105
260934,145107
260944,145112
260954,145107
260964,145105
260974,145106
260984,145094
260994,145107
261004,145113
261014,145127
261025,145135
261034,145118
261045,145143
261054,145131
261065,145158
261074,145110
261084,145117
261095,145115
261105,145103
261114,145087
261125,145071
261135,145042
261145,145025
261155,145001
261165,145002
261175,145001
261218,144951
261225,144967
261236,145002
261245,145044
261255,145096
261265,145136
261275,145141
261285,145156
261295,145147
261305,145139
261315,145127
261325,145123
261335,145083
261345,145070
261355,145045
261365,145055
261375,145083
261385,145057
261428,144806
261467,144645
261475,144538
261486,144469
261526,144249
261535,144144
261545,144041
261555,143900
261565,143731
261575,143606
261585,143526
261630,143188
261636,143228
261647,143214
261655,143440
261665,143563
261675,143609
261685,143668
261695,143751
261705,143776
261715,143798
261725,143818
261735,143785
261745,143754
261755,143670
261765,143640
261775,143553
261785,143494
261795,143431
261805,143398
261815,143378
261825,143368
261835,143379
261845,143411
261855,143430
261865,143444
261875,143459
261885,143480
261895,143464
261905,143481
261915,143487
261925,143471
261935,143443
261945,143424
261955,143447
261965,143491
261975,143527
262017,143666
262026,143647
262069,143476
262106,143513
262117,143382
262126,143337
262217,143173
262226,143182
262236,143129
262246,143096
262257,143050
262267,143053
262277,143049
262286,143016
262297,143014
262307,143018
262316,142975
262327,142977
262337,142991
262347,143034
262356,143069
262367,143003
262377,142999
262419,143066
262427,143113
262437,143132
262446,143148
262457,143173
262467,143209
262476,143221
262487,143262
262497,143283
262507,143315
262516,143323
262527,143318
262537,143349
262546,143382
262556,143377
262567,143435
262577,143480
262587,143523
262596,143577
262606,143598
262617,143629
262627,143660
262637,143700
262647,143822
262657,143899
262666,143988
262676,144116
262686,144160
262696,144199
262706,144223
262716,144220
262767,144200
262808,144045
262847,144095
262858,144110
262866,144059
262907,144061
262917,144079
262926,144072
262936,144058
262946,144070
262956,144067
262966,144080
262976,144098
262986,144101
262996,144104
263006,144124
263016,144145
263026,144136
263036,144130
263046,144129
263056,144145
263066,144121
263077,144127
263086,144128
263096,144121
263106,144113
263116,144116
263126,144114
263136,144109
263146,144100
263156,144122
263166,144136
263176,144149
263218,144141
263228,144134
263238,144154
263247,144133
263256,144133
263267,144152
263277,144162
263288,144197
263298,144224
263308,144233
263317,144274
263328,144291
263338,144325
263348,144356
263357,144398
263368,144428
263378,144450
263388,144458
263397,144485
263408,144516
263418,144485
263459,144433
263466,144410
263509,144497
263517,144484
263561,144493
263568,144475
263577,144458
263588,144404
263597,144372
263608,144377
263648,144373
263658,144121
263669,144066
263678,144003
263688,143938
263698,143907
263708,143886
263717,143874
263728,143826
263738,143783
263748,143771
263757,143767
263768,143759
263778,143773
263788,143769
263797,143769
263808,143767
263818,143789
263828,143786
263837,143792
263848,143803
263858,143807
263868,143801
263878,143717
263887,143740
263898,143741
263908,143729
263917,143704
263928,143710
263938,143713
263948,143681
263957,143689
263968,143683
264019,143690
264029,143741
264038,143743
264047,143788
264057,143799
264068,143852
264119,143963
264160,143998
264169,144220
264178,144358
264188,144417
264198,144462
264208,144491
264217,144437
264227,144420
264237,144455
264247,144497
264257,144511
264267,144514
264308,144639
264318,144665
264329,144669
264338,144664
264347,144696
264357,144801
264368,144861
264377,144874
264387,144910
264397,144988
264409,145083
264418,145133
264460,145314
264469,145394
264512,145614
264519,145764
264529,145899
264570,144497
264578,146343
264589,146395
264599,146430
264609,146414
264619,146430
264629,146409
264638,146389
264648,146320
264659,146242
264669,146171
264679,146090
264688,146011
264699,145953
264709,145876
264718,145801
264729,145750
264739,145720
264749,145708
264758,145697
264769,145721
264819,145928
264830,145984
264838,145976
264848,145954
264858,145882
264869,145799
264879,145628
264889,145547
264899,145442
264909,145390
264918,145309
264929,145231
264939,145181
264949,145163
264958,145230
264969,145255
264979,145285
264989,145299
264998,145294
265009,145277
265019,145255
265029,145234
265038,145186
265049,145164
265059,145119
265069,145084
265112,144888
265121,144868
265160,144786
265163,145928
265169,144849
265181,144942
265224,144944
265228,144961
265271,145125
265279,145142
265288,145163
265298,145180
265309,145264
265318,145274
265329,145344
265339,145403
265349,145453
265358,145453
265369,145491
265379,145500
265389,145486
265398,145507
265409,145514
265419,145516
265429,145512
265438,145534
265449,145518
265459,145520
265469,145553
265479,145518
265489,145532
265499,145503
265509,145441
265519,145529
265529,145650
265539,146352
265549,146431
265560,145623
265570,145448
265578,145360
265620,145188
265631,145156
265640,145130
265649,145134
265659,145145
265669,145152
265679,145175
265689,145198
265699,145214
265709,145224
265720,145236
265730,145258
265772,145228
265780,145217
265825,145223
265829,145189
265872,145176
265881,145243
265930,145221
265939,145249
265949,145217
265960,145203
265970,145156
265980,145166
266022,145119
266030,145128
266040,145125
266050,145139
266059,145141
266069,145135
266079,145159
266089,145140
266099,145146
266109,145147
266120,145147
266130,145208
266140,145164
266150,145061
266159,145034
266169,144996
266179,144904
266189,144843
266200,144848
266210,144831
266220,144821
266230,144792
266239,144770
266250,144755
266260,144738
266270,144696
266280,144685
266289,144617
266300,144622
266310,144674
266319,144630
266330,144639
266340,144627
266350,144637
266359,144617
266370,144686
266413,144693
266415,145135
266422,144573
266432,144483
266440,144478
266480,144473
266490,144506
266530,144573
266570,144830
266572,144831
266582,145140
266589,145202
266599,145281
266610,145355
266620,145397
266630,145487
266639,145587
266650,145690
266660,145807
266670,145915
266680,146014
266691,146110
266701,146210
266711,146205
266720,146206
266730,146195
266740,146159
266750,146202
266761,146270
266771,146334
266822,146432
266831,146536
266841,146616
266850,146645
266860,146679
266870,146729
266880,146783
266890,146777
266900,146602
266910,146713
266921,146875
266930,146973
266940,147058
266950,147249
266961,147554
266971,147807
266981,148085
266991,148335
267000,148536
267010,148753
267020,148918
267030,149085
267041,149191
267050,149255
267060,149279
267070,149312
267080,149334
267133,151074
267142,151092
267222,151393
267231,151660
267241,151718
267251,151812
267293,152341
267301,152402
267310,152489
267321,152607
267331,152686
267341,152771
267351,152842
267360,152926
267370,152988
267380,153061
267390,153071
267401,153152
267411,153196
267421,153260
267431,153298
267440,153302
267450,153296
267460,153326
267470,153370
267480,153377
267490,153427
267500,153422
267510,153453
267521,153509
267531,153542
267541,153577
267551,153588
267560,153609
267570,153616
267581,153628
267621,153670
267631,153664
267641,153730
267650,153685
267660,153692
267670,153697
267681,153712
267691,153708
267701,153687
267711,153684
267720,153624
267730,153620
267740,153642
267750,153627
267761,153649
267771,153638
267781,153642
267791,153631
267800,153608
267810,153612
267856,153556
267862,153541
267871,153525
267923,153609
267963,153693
267972,153913
267984,153943
267991,153966
268062,154068
268064,153624
268071,154194
268084,154224
268131,154331
268142,154315
268152,154329
268161,154338
268171,154350
268181,154372
268191,154386
268202,154383
268212,154417
268222,154417
268232,154446
268241,154467
268251,154501
268261,154510
268271,154521
268281,154529
268292,154545
268302,154538
268312,154560
268321,154595
268331,154598
268341,154601
268351,154627
268362,154599
268372,154624
268422,154671
268431,154678
268441,154706
268451,154745
268461,154750
268471,154755
268482,154758
268492,154746
268502,154746
268512,154708
268521,154699
268563,154677
268565,154417
268573,154629
268582,154618
268631,154595
268641,154630
268652,154697
268662,154753
268672,154808
268683,154956
268692,155146
268701,155259
268712,155377
268721,155447
268731,155495
268772,155337
268783,155193
268791,155040
268802,154946
268811,154801
268821,154734
268831,154610
268841,154520
268851,154463
268862,154527
268905,154559
268943,154836
268954,154841
268962,154741
269006,154732
269011,154726
269021,154742
269031,154715
269042,154707
269052,154729
269062,154783
269072,154840
269082,154850
269093,154878
269102,154898
269112,154883
269122,154815
269132,154670
269142,154489
269152,154303
269163,154145
269172,153980
269215,153847
269217,154546
269222,153546
269232,153518
269243,153494
269252,153416
269262,153333
269273,153242
269282,153091
269292,152934
269302,153573
269312,153392
269323,153157
269332,153007
269342,152841
269352,152663
269363,152543
269372,152480
269382,152341
269392,152288
269403,152247
269412,152200
269422,152149
269432,152107
269443,152054
269452,151923
269462,151877
269472,151797
269482,151710
269493,151669
269502,151682
269544,151727
269596,151729
269604,151708
269669,153157
269673,152001
269723,151929
269732,151854
269742,151780
269752,151766
269763,151623
269773,151320
269783,151285
269792,151270
269803,151305
269813,151332
269823,151375
269832,151421
269843,151535
269853,151684
269863,151800
269872,151869
269882,151940
269893,152050
269903,152102
269912,152161
269922,152233
269932,152266
269942,152320
269952,152339
269963,152397
269973,152405
270024,152239
270032,152176
270042,152070
270052,152048
270062,152056
270072,152095
270083,152125
270093,152095
270103,152087
270112,152019
270123,152053
270133,152017
270143,152010
270152,151974
270163,151970
270173,151935
270183,151913
270192,151871
270203,151875
270213,151860
270223,151862
270272,151774
270312,151708
270354,151747
270364,151811
270373,151781
270383,151792
270393,151851
270404,151935
270413,151936
270455,151883
270464,151859
270473,151804
270483,151773
270493,151752
270503,151795
270513,151826
270524,151857
270533,151884
270543,151913
270553,151917
270564,151928
270573,151960
270583,151987
270593,151994
270604,152021
270613,152030
270623,152018
270633,152000
270643,151994
270653,151956
270663,151925
270673,151905
270683,151929
270694,151923
270703,151939
270713,151955
270724,151956
270733,151970
270743,151991
270753,152006
270764,151986
270773,151985
270824,152005
270834,151999
270843,152009
270853,152012
270863,152029
270906,152012
270913,152094
270957,152112
270963,152178
271008,152492
271015,152549
271024,152602
271033,152548
271044,152539
271053,152500
271063,152454
271073,152464
271083,152421
271094,152422
271103,152393
271113,152362
271123,152325
271133,152257
271143,152225
271153,152246
271164,152236
271173,152152
271184,152106
271225,152054
271233,152073
271243,152088
271253,152086
271263,152082
271273,152063
271284,152096
271293,152015
271303,151949
271313,151940
271324,151941
271333,151887
271343,151901
271353,151885
271364,151874
271374,151833
271384,151842
271394,151815
271403,151783
271413,151741
271423,151705
271433,151648
271444,151626
271454,151632
271464,151613
271474,151605
271484,151618
271495,151609
271504,151623
271514,151621
271565,151663
271647,151813
271649,151949
271656,151951
271664,151935
271705,152002
271716,152006
271754,152141
271764,152199
271774,152231
271784,152257
271794,152323
271805,152384
271814,152447
271824,152527
271834,152595
271845,152686
271854,152737
271864,152755
271874,152772
271883,152792
271894,152749
271904,152771
271914,152762
271925,152739
271934,152770
271944,152844
271954,152944
271965,152979
271974,153025
272014,153152
272017,151958
272026,153218
272034,153232
272045,153205
272054,153132
272064,153096
272074,153056
272084,153015
272095,152981
272104,152934
272114,152870
272124,152839
272134,152798
272144,152800
272154,152784
272165,152817
272174,152825
272184,152969
272194,152963
272205,153024
272214,153091
272224,153067
272234,153034
272245,153041
272297,152974
272304,152969
272348,152968
272354,152858
272406,152738
272447,152745
272455,152718
272464,152695
272474,152677
272485,152711
272494,152660
272504,152642
272514,152660
272525,152706
272534,152689
272544,152659
272554,152669
272565,152650
272574,152617
272584,152596
272594,152580
272605,152588
272614,152609
272624,152688
272634,152718
272645,152746
272654,152736
272664,152730
272674,152710
272684,152676
272695,152744
272705,152812
272715,152835
272724,152846
272734,152842
272745,152848
272755,152813
272765,152783
272775,152733
272826,152662
272835,152632
272845,152598
272856,152571
272865,152546
272876,152540
272885,152487
272895,152488
272906,152463
272916,152453
272926,152422
272967,152746
272976,152342
272985,152332
272995,152358
273005,152355
273015,152387
273025,152380
273035,152420
273045,152456
273055,152468
273067,152475
273106,152503
273116,152499
273166,152480
273176,152472
273185,152485
273257,152486
273259,152534
273265,152564
273275,152573
273287,152544
273295,152585
273305,152608
273316,152610
273325,152631
273335,152618
273345,152615
273356,152634
273365,152635
273375,152601
273385,152612
273396,152637
273405,152622
273415,152627
273425,152605
273436,152654
273445,152637
273455,152623
273466,152618
273475,152609
273485,152599
273496,152574
273505,152538
273516,152539
273525,152484
273536,152474
273546,152463
273556,152449
273565,152406
273575,152341
273585,152332
273626,152276
273635,152221
273646,152279
273655,152307
273665,152334
273676,152395
273685,152375
273695,152363
273705,152393
273715,152367
273725,152374
273735,152350
273745,152369
273756,152427
273765,152356
273808,152599
273816,152122
273860,152129
273866,152122
273878,152137
273919,152129
273960,152221
273966,152229
273977,152190
274018,152107
274026,152119
274036,152059
274046,152036
274056,152018
274066,152016
274076,152022
274086,151873
274096,151881
274106,151852
274116,151880
274126,151945
274136,152055
274146,152204
274156,152336
274168,152437
274176,152546
274186,152612
274196,152613
274206,152573
274216,152498
274226,152374
274236,152244
274246,152156
274256,152095
274266,152041
274276,151983
274286,152002
274296,151995
274306,152039
274316,152087
274326,152140
274336,152113
274346,152115
274356,152062
274366,152043
274376,152068
274386,152061
274426,151891
274436,151818
274446,151783
274456,151733
274496,151682
274499,152336
274508,151430
274518,151339
274566,151359
274618,151153
274627,151183
274637,151194
274647,151180
274656,151209
274666,151215
274676,151267
274686,151306
274696,151343
274706,151352
274717,151385
274726,151388
274736,151369
274746,151386
274757,151417
274766,151434
274810,151432
274812,151783
274817,151439
274827,151515
274836,151536
274846,151583
274856,151596
274866,151611
274877,151655
274886,151631
274896,151601
274906,151595
274917,151610
274927,151620
274936,151582
274946,151551
274956,151524
274967,151567
274976,151498
274986,151483
274996,151445
275006,151437
275016,151445
275026,151472
275037,151498
275046,151512
275056,151528
275066,151537
275076,151530
275087,151521
275097,151506
275107,151535
275116,151550
275126,151570
275168,151488
275177,151495
275270,151642
275279,151669
275321,151546
275329,151531
275339,151503
275347,151412
275357,151358
275367,151387
275377,151400
275387,151405
275397,151386
275407,151377
275417,151364
275427,151383
275437,151386
275447,151382
275457,151416
275467,151430
275477,151451
275487,151445
275497,151454
275507,151473
275517,151503
275527,151523
275537,151514
275547,151500
275558,151466
275567,151468
275618,151394
275628,151322
275637,151242
275647,151224
275657,151183
275668,151176
275677,151148
275687,151174
275697,151158
275707,151126
275717,151099
275727,151090
275737,151087
275747,151127
275757,151126
275767,151134
275777,151122
275787,151106
275797,151072
275807,151103
275817,151133
275827,151152
275837,151159
275888,151273
275899,151302
275948,151341
275957,151443
276008,151480
276018,151468
276109,151480
276117,151513
276127,151538
276137,151555
276147,151543
276157,151549
276167,151559
276177,151575
276187,151591
276197,151622
276207,151648
276217,151594
276228,151617
276237,151584
276247,151573
276257,151555
276267,151562
276277,151571
276288,151580
276297,151587
276308,151584
276317,151599
276327,151585
276337,151573
276348,151533
276358,151572
276368,151557
276418,151575
276429,151565
276438,151548
276448,151577
276458,151611
276468,151673
276478,151718
276488,151742
276498,151718
276508,151666
276518,151668
276528,151632
276538,151618
276548,151614
276558,151639
276568,151658
276578,151718
276588,151779
276598,151830
276652,151848
276661,151869
276709,152048
276751,151903
276758,151886
276769,151884
276811,151742
276859,151851
276868,151781
276879,151727
276889,151736
276898,151791
276909,151828
276919,151915
276929,151904
276940,151933
276948,151891
276958,151861
276999,151790
277008,151777
277021,151784
277028,151732
277039,151715
277049,151697
277058,151710
277068,151716
277079,151759
277089,151828
277100,151830
277108,151801
277118,151753
277128,151686
277138,151640
277149,151632
277158,151618
277168,151654
277178,151740
277188,151788
277198,151834
277208,151841
277218,151828
277228,151787
277239,151826
277248,151744
277258,151729
277268,151722
277278,151720
277319,151666
277360,151649
277397,151645
277400,151710
277409,151636
277420,151662
277460,151622
277502,151569
277510,151628
277519,151636
277530,151669
277539,151710
277550,151762
277559,151782
277570,151771
277579,151703
277589,151694
277599,151643
277642,151596
277650,151647
277659,151606
277669,151571
277679,151517
277690,151498
277699,151427
277710,151396
277719,151405
277730,151421
277739,151454
277750,151481
277759,151519
277770,151488
277779,151454
277790,151390
277799,151339
277810,151317
277819,151366
277830,151397
277839,151402
277849,151420
277859,151439
277869,151482
277879,151541
277889,151648
277899,151761
277909,151867
277920,151962
277929,152086
277939,152201
277949,152276
277959,152320
277969,152448
278012,152534
278061,152461
278100,152461
278144,152583
278149,152597
278159,152661
278169,152729
278179,152765
278189,152795
278200,152816
278209,152830
278219,152835
278229,152836
278239,152834
278249,152819
278259,152804
278269,152786
278279,152737
278289,152746
278299,152716
278309,152710
278320,152739
278329,152703
278339,152715
278349,152735
278359,152719
278369,152746
278419,152819
278430,152850
278439,152894
278449,152882
278459,152909
278469,152919
278479,152915
278489,152887
278499,152915
278509,152915
278519,152915
278529,152909
278539,152888
278549,152914
278559,152928
278569,152906
278579,152912
278589,152896
278599,152874
278609,152847
278619,152829
278629,152829
278639,152847
278649,152861
278693,152923
278700,152977
278741,153029
278781,153033
278790,152987
278800,152995
278844,152907
278851,152881
278860,152888
278871,152866
278880,152857
278891,152868
278900,152860
278911,152844
278920,152836
278931,152836
278940,152837
278951,152896
278960,152935
278971,152969
278980,153010
278990,153040
279000,153057
279011,153042
279020,153071
279031,153056
279040,153049
279051,153059
279060,153058
279071,153032
279080,153020
279091,153004
279100,152975
279111,152967
279120,152943
279131,152950
279140,152948
279151,152944
279160,152960
279171,152966
279222,153161
279231,153163
279240,153170
279251,153173
279260,153203
279271,153189
279280,153184
279291,153163
279341,153122
279386,153135
279392,153122
279440,153103
279483,153077
279490,153065
279500,153073
279510,153069
279521,153162
279530,153287
279540,153371
279550,153447
279560,153475
279570,153533
279580,153544
279590,153539
279642,153451
279650,153391
279660,153380
279670,153352
279680,153323
279690,153344
279700,153356
279710,153382
279720,153432
279730,153465
279740,153482
279750,153516
279760,153536
279770,153506
279780,153530
279790,153571
279800,153606
279810,153608
279820,153638
279830,153653
279840,153652
279850,153613
279860,153628
279870,153581
279880,153547
279890,153565
279900,153559
279910,153603
279921,153637
279932,153671
279941,153693
279951,153713
279961,153720
279972,153725
280023,153683
280065,153522
280071,153451
280081,153460
280122,153472
280131,153454
280171,153547
280181,153513
280192,153504
280201,153531
280211,153510
280222,153510
280231,153500
280241,153494
280252,153518
280261,153516
280272,153524
280281,153499
280292,153532
280301,153510
280312,153501
280321,153482
280332,153484
280341,153482
280352,153481
280361,153465
280372,153481
280423,153414
280432,153476
280441,153441
280452,153507
280461,153534
280472,153570
280481,153599
280492,153619
280501,153635
280512,153636
280521,153645
280532,153671
280541,153679
280552,153686
280562,153715
280571,153731
280582,153730
280591,153705
280601,153713
280611,153687
280622,153682
280631,153653
280641,153633
280651,153595
280662,153627
280701,153596
280711,153392
280722,153352
280764,153312
280771,153304
280814,153288
280816,153570
280851,153352
280854,153358
280862,153386
280873,153419
280882,153405
280891,153392
280902,153444
280911,153431
280922,153470
280931,153433
280941,153435
280951,153446
280961,153443
281012,153549
281022,153567
281031,153533
281043,153587
281052,153571
281061,153557
281071,153573
281082,153581
281091,153607
281101,153630
281112,153644
281121,153652
281133,153687
281142,153667
281152,153664
281162,153691
281172,153678
281181,153680
281192,153672
281202,153703
281213,153691
281222,153708
281232,153715
281242,153730
281253,153791
281262,153823
281272,153843
281316,153868
281323,153835
281332,153828
281343,153761
281352,153715
281363,153684
281404,153736
281412,153754
281455,153687
281462,153734
281512,153841
281553,153997
281563,154022
281572,154025
281583,154054
281592,154075
281602,154074
281614,154093
281655,154139
281665,154118
281672,154097
281682,154125
281693,154126
281702,154156
281712,154150
281722,154141
281733,154093
281743,154061
281752,154055
281762,154019
281773,154035
281782,154029
281793,153987
281802,153946
281813,153939
281822,153928
281832,153898
281842,153901
281853,153915
281862,153911
281872,153937
281882,153956
281892,153959
281903,153969
281912,153983
281922,153963
281933,153934
281942,153879
281952,153843
281962,153802
281973,153791
282015,153751
282024,153770
282032,153785
282042,153782
282052,153831
282096,153794
282103,153836
282112,153841
282155,153837
282205,153964
282213,153906
282222,153911
282232,153899
282242,153900
282253,153939
282262,153919
282273,153949
282282,153961
282293,153972
282302,153994
282312,154032
282322,154016
282333,154013
282342,154019
282353,154026
282362,153964
282373,153904
282417,153896
282424,153865
282433,153842
282443,153908
282454,154001
282463,154099
282473,154229
282484,154314
282493,154403
282503,154494
282514,154574
282524,154684
282533,154758
282543,154822
282554,154842
282564,154883
282574,154924
282583,154924
282593,154907
282604,154914
282613,154903
282623,154902
282634,154876
282644,154888
282653,154919
282663,154952
282673,155000
282683,155023
282693,155028
282703,155045
282743,155095
282746,153884
282754,155119
282764,155118
282809,155110
282854,155185
282904,155258
282915,155200
282923,155172
282934,155148
282943,155090
282954,155043
282963,155013
282974,155055
282983,155055
282994,155057
283003,155047
283014,155069
283023,155078
283034,155102
283043,155118
283054,155150
283063,155098
283074,155057
283083,154988
283094,154941
283103,154903
283114,154891
283123,154869
283134,154878
283143,154847
283154,154830
283163,154810
283174,154801
283220,154768
283224,154740
283235,154605
283243,154535
283254,154467
283263,154419
283274,154400
283283,154356
283294,154336
283303,154261
283314,154212
283323,154149
283334,154123
283343,154062
283354,154040
283363,153978
283374,153996
283383,153907
283394,153932
283403,153915
283414,153953
283453,153906
283465,153923
283507,153963
283509,153929
283515,153938
283525,153896
283576,153460
283585,153373
283623,153572
283665,153724
283673,153774
283684,153775
283694,153849
283704,153957
283714,153943
283725,153896
283734,153843
283744,153774
283755,153721
283765,153633
283774,153474
283784,153272
283794,152985
283805,152831
283814,152757
283824,152714
283834,152840
283845,153161
283854,153609
283864,153696
283874,153744
283885,153786
283894,153816
283904,153867
283914,153879
283925,153932
283934,153911
283944,153874
283954,153836
283965,153782
283974,153729
284017,153292
284024,153163
284035,153068
284044,153056
284054,153212
284065,153483
284074,153532
284085,153576
284094,153575
284104,153631
284114,153640
284165,153665
284175,153616
284226,153292
284235,153242
284284,153271
284294,153346
284304,153355
284314,153416
284325,153464
284334,153494
284344,153480
284354,153524
284365,153545
284374,153514
284385,153548
284428,153447
284435,153461
284445,153436
284454,153425
284464,153363
284475,153374
284484,153363
284494,153272
284505,153275
284514,153232
284525,153239
284534,153188
284544,153168
284554,153111
284565,153019
284574,152947
284584,152922
284594,152852
284605,152856
284614,152803
284624,152764
284634,152773
284645,152810
284654,152745
284665,152793
284674,152771
284684,152806
284695,152850
284704,152868
284714,152904
284724,153001
284735,153088
284744,153104
284754,153169
284764,153227
284775,153338
284861,153477
284870,153558
284874,153624
284925,153674
284976,153506
284985,153459
284995,153395
285037,153347
285080,153382
285086,153382
285096,153414
285105,153413
285116,153430
285125,153464
285134,153479
285147,153469
285156,153533
285165,153549
285175,153509
285226,153653
285235,153716
285246,153794
285256,153815
285264,153849
285275,153869
285286,153911
285296,153877
285306,153884
285316,153870
285327,153866
285370,153811
285377,153819
285386,153829
285395,153784
285405,153753
285415,153762
285426,153724
285435,153708
285445,153711
285455,153690
285466,153656
285475,153656
285485,153684
285495,153692
285505,153715
285515,153732
285526,153758
285535,153795
285545,153814
285555,153878
285566,153892
285575,153919
285585,153919
285628,154035
285636,154060
285646,154065
285655,154073
285666,154116
285675,154103
285685,154121
285696,154213
285705,154296
285715,154358
285725,154406
285736,154511
285745,154521
285755,154539
285765,154534
285775,154455
285786,154457
285795,154378
285805,154352
285815,154289
285826,154307
285866,154271
285869,153758
285876,154370
285915,154457
285957,154341
285965,154278
285975,154257
285985,154208
285996,154209
286005,154126
286050,154016
286057,153971
286066,153953
286075,153974
286085,153976
286095,154028
286106,154047
286115,154051
286125,154065
286135,154088
286146,154084
286155,154082
286165,154052
286175,154053
286186,154028
286195,154025
286207,154016
286216,154022
286226,154029
286236,154010
286246,154008
286257,154038
286266,154041
286277,154049
286286,154049
286296,154029
286307,153998
286316,153965
286326,153932
286336,153906
286347,153852
286356,153831
286367,153803
286376,153781
286427,153787
286438,153786
286447,153776
286456,153761
286466,153768
286506,153748
286547,153774
286558,153797
286597,153802
286609,153802
286616,153752
286626,153693
286636,153572
286647,153455
286656,153386
286667,153265
286676,153188
286687,153081
286696,152996
286706,152954
286716,152901
286727,152852
286736,152814
286746,152765
286756,152748
286767,152747
286776,152731
286819,152688
286827,152498
286837,152400
286846,152400
286856,152546
286866,152580
286876,152368
286886,152231
286896,152130
286907,152036
286916,151901
286927,151888
286936,151887
286946,151898
286956,151940
286967,152038
286976,152087
286986,152156
286997,152335
287007,152606
287016,153141
287026,153648
287037,154293
287047,154428
287056,154476
287066,154480
287076,154563
287086,154579
287097,154635
287106,154606
287151,154693
287156,154653
287201,154535
287209,154497
287248,154378
287256,154292
287300,154340
287307,154259
287317,154230
287360,154289
287367,154230
287376,154200
287387,154186
287397,154084
287407,153958
287416,153954
287427,153861
287438,153763
287447,153671
287458,153651
287467,153610
287477,153591
287488,153596
287497,153599
287508,153632
287518,153659
287527,153715
287538,153803
287547,153898
287557,153981
287568,154050
287577,154094
287619,153666
287628,153578
287638,153456
287647,153360
287657,153310
287668,153246
287677,153195
287687,153164
287697,153108
287708,153108
287717,153133
287727,153178
287738,153200
287747,153216
287757,153202
287768,153158
287777,153089
287787,152984
287797,152904
287807,152861
287818,152808
287827,152710
287837,152664
287848,152602
287857,152539
287902,152099
287907,151957
287959,152238
287968,152231
288011,152079
288058,151948
288068,151971
288078,151997
288088,152059
288097,152089
288107,152116
288118,152262
288128,152390
288137,152516
288147,152566
288158,152622
288168,152591
288177,152537
288187,152481
288198,152520
288208,152530
288218,152521
288227,152511
288237,152515
288248,152526
288257,152529
288267,152521
288278,152596
288287,152614
288297,152673
288308,152714
288317,152689
288327,152738
288337,152707
288348,152747
288357,152677
288367,152687
288377,152708
288430,152900
288439,152950
288447,152916
288457,152937
288467,152957
288477,152994
288487,153025
288497,153083
288508,153098
288551,153336
288557,153393
288599,153540
288608,153558
288620,153536
288664,153474
288668,153446
288678,153430
288688,153420
288698,153404
288709,153413
288718,153425
288728,153442
288739,153450
288749,153435
288758,153437
288768,153467
288779,153476
288829,153593
288839,153604
288848,153564
288858,153560
288868,153555
288878,153577
288888,153588
288898,153597
288909,153586
288918,153604
288928,153587
288939,153572
288948,153594
288959,153586
288968,153562
288979,153578
288988,153593
288999,153573
289008,153549
289018,153545
289028,153564
289038,153575
289048,153622
289058,153637
289068,153628
289078,153667
289089,153693
289098,153698
289109,153706
289118,153726
289128,153775
289138,153802
289148,153807
289158,153851
289197,153894
289208,154008
289250,154098
289259,154118
289268,154078
289320,153991
289330,153995
289370,153940
289379,153954
289388,153934
289398,153971
289409,153985
289419,154008
289428,153995
289438,154013
289448,154032
289499,154132
289509,154116
289519,154140
289529,154205
289539,154185
289549,154208
289559,154202
289569,154203
289578,154171
289588,154167
289628,154206
289631,154221
289638,154203
289678,154243
289680,153991
289690,154180
289700,154190
289709,154191
289719,154230
289729,154249
289738,154219
289748,154199
289758,154249
289768,154243
289779,154261
289788,154274
289798,154328
289809,154380
289818,154408
289828,154475
289839,154502
289848,154514
289858,154547
289869,154544
289878,154553
289889,154536
289899,154529
289909,154542
289920,154548
289929,154525
289939,154512
289949,154454
289960,154430
289969,154394
289979,154352
290020,154306
290030,154245
290040,154232
290049,154196
290059,154208
290069,154214
290079,154202
290089,154212
290100,154212
290109,154209
290119,154190
290130,154188
290139,154192
290149,154174
290160,154172
290169,154148
290179,154154
290189,154164
290200,154180
290244,154172
290250,154174
290300,154252
290352,154248
290362,154216
290369,154239
290379,154255
290389,154242
290400,154259
290450,154279
290460,154291
290470,154323
290479,154320
290489,154317
290499,154290
290510,154338
290519,154350
290529,154321
290539,154366
290550,154401
290559,154420
290569,154402
290579,154433
290589,154409
290600,154398
290609,154350
290619,154318
290629,154255
290640,154282
290649,154216
290660,154246
290669,154184
290679,154146
290689,154131
290700,154136
290709,154115
290719,154094
290730,154133
290739,154134
290749,154122
290760,154157
290769,154117
290811,154099
290822,154120
290831,154178
290839,154144
290849,154160
290859,154153
290904,154106
290911,154118
290949,154105
290952,154350
290961,153846
290999,153825
291001,154282
291010,153822
291020,153827
291060,154042
291070,154040
291081,154026
291090,154018
291100,153969
291111,153951
291120,153953
291130,153970
291141,154057
291150,154124
291160,154155
291171,154198
291215,154325
291221,154482
291230,154537
291239,154533
291251,154514
291260,154478
291270,154419
291281,154368
291291,154318
291300,154266
291310,154205
291321,154152
291330,154097
291340,154065
291350,154005
291360,153986
291371,153978
291380,154005
291390,154009
291401,154005
291410,153965
291420,153922
291430,153877
291440,153829
291451,153833
291460,153875
291470,153890
291480,153903
291490,153906
291500,153876
291510,153900
291520,153917
291530,153875
291540,153923
291550,153893
291602,153926
291611,153894
291652,153908
291661,153944
291670,153954
291712,153907
291720,153901
291731,153885
291771,154021
291780,154060
291790,154094
291801,154139
291810,154129
291821,154158
291830,154146
291840,154128
291851,154169
291860,154147
291870,154161
291880,154165
291890,154149
291901,154181
291910,154159
291921,154171
291930,154125
291940,154104
291950,154072
291961,154083
291970,154045
292012,154059
292021,154067
292031,154028
292040,154035
292050,154031
292061,154057
292070,154063
292081,154141
292090,154142
292100,154147
292110,154159
292120,154180
292131,154203
292140,154113
292150,154103
292161,154091
292170,154037
292180,154069
292190,154050
292200,154086
292211,154083
292220,154100
292231,154122
292241,154155
292252,154194
292261,154225
292271,154246
292317,154295
292322,154289
292332,154320
292373,154267
292381,154249
292433,154322
292442,154307
292452,154343
292492,154380
292501,154392
292511,154399
292521,154339
292532,154315
292541,154299
292551,154279
292562,154223
292571,154179
292581,154145
292591,154101
292601,154079
292612,154050
292621,154042
292631,154076
292641,154110
292652,154141
292661,154131
292671,154189
292681,154204
292691,154228
292701,154232
292711,154237
292722,154224
292731,154230
292741,154218
292751,154232
292761,154231
292772,154229
292816,154269
292823,154276
292832,154276
292841,154262
292851,154281
292861,154272
292871,154269
292882,154287
292891,154303
292901,154317
292911,154354
292922,154366
292931,154413
292941,154419
292951,154407
292962,154441
292971,154451
292981,154440
292991,154404
293034,154398
293044,154365
293053,154337
293092,154417
293137,154380
293143,154382
293233,154195
293282,154164
293293,154211
293301,154154
293311,154142
293322,154215
293331,154192
293341,154200
293351,154232
293362,154258
293371,154232
293382,154246
293391,154214
293401,154219
293411,154234
293421,154252
293431,154226
293442,154231
293451,154212
293462,154219
293472,154233
293481,154227
293491,154207
293502,154236
293512,154244
293522,154270
293531,154284
293542,154273
293552,154296
293562,154301
293573,154296
293623,154339
293634,154327
293642,154307
293652,154324
293662,154341
293672,154339
293682,154325
293693,154336
293702,154316
293713,154296
293722,154241
293732,154229
293742,154191
293752,154148
293762,154128
293773,154138
293782,154130
293793,154153
293836,154143
293842,154129
293853,154139
293861,154126
293873,154136
293882,154138
293893,154153
293901,154135
293912,154143
293922,154171
293932,154190
293983,154212
293992,154190
294003,154211
294011,154232
294021,154199
294032,154194
294042,154216
294052,154202
294063,154186
294072,154214
294083,154190
294126,154258
294133,154205
294174,154234
294184,154234
294192,154245
294202,154260
294245,154269
294255,154291
294263,154281
294272,154259
294283,154234
294292,154168
294302,154155
294313,154135
294322,154065
294333,154071
294343,154037
294352,154015
294362,153973
294373,153996
294382,153974
294392,153968
294402,153993
294446,153937
294454,153934
294463,153908
294473,153955
294482,153906
294492,153936
294502,153923
294512,153922
294523,153968
294532,153939
294542,153914
294552,153907
294562,153914
294573,153946
294582,153916
294593,153939
294602,153886
294613,153914
294622,153887
294633,153894
294642,153888
294652,153885
294663,153888
294672,153860
294683,153905
294693,153887
294702,153906
294713,153916
294722,153916
294733,153897
294744,153912
294753,153900
294794,153966
294835,154000
294843,153980
294855,153966
294863,153914
294904,153718
294914,153706
294956,153720
295004,153725
295013,153706
295024,153671
295033,153661
295044,153628
295053,153627
295063,153596
295074,153593
295084,153571
295093,153530
295103,153540
295114,153556
295123,153538
295134,153571
295143,153593
295154,153597
295163,153608
295173,153622
295217,153634
295223,153677
295235,153658
295245,153709
295253,153693
295263,153700
295273,153711
295284,153760
295293,153762
295303,153749
295313,153759
295323,153770
295334,153800
295343,153791
295354,153788
295363,153808
295373,153816
295384,153822
295393,153790
295403,153801
295414,153828
295423,153849
295433,153853
295443,153855
295454,153874
295463,153890
295473,153879
295483,153888
295493,153855
295503,153825
295545,153656
295585,153585
295594,153570
295634,153530
295645,153525
295654,153519
295704,153596
295713,153583
295723,153588
295734,153621
295743,153597
295754,153616
295763,153599
295773,153601
295783,153594
295794,153609
295803,153600
295814,153615
295823,153617
295833,153615
295843,153649
295854,153651
295863,153648
295873,153650
295883,153688
295893,153669
295904,153676
295915,153692
295923,153690
295934,153696
295945,153696
295954,153688
295964,153702
295975,153685
296024,153718
296035,153710
296044,153717
296054,153722
296064,153745
296075,153738
296084,153739
296094,153771
296104,153758
296114,153766
296124,153760
296135,153778
296144,153796
296154,153813
296164,153800
296175,153813
296184,153791
296194,153741
296239,153608
296244,153575
296286,153467
296297,153481
296304,153398
296344,153452
296388,153474
296427,153482
296430,153739
296437,153511
296444,153535
296454,153502
296464,153495
296474,153494
296485,153483
296495,153463
296504,153490
296515,153469
296524,153443
296534,153429
296544,153455
296554,153458
296564,153461
296574,153472
296585,153513
296594,153525
296604,153521
296615,153565
296624,153556
296635,153575
296644,153566
296654,153549
296665,153577
296674,153567
296684,153565
296694,153578
296705,153625
296714,153592
296724,153574
296735,153626
296744,153599
296754,153576
296764,153605
296775,153637
296826,153639
296835,153666
296845,153666
296855,153750
296864,153687
296875,153719
296885,153694
296937,153496
296978,153444
296985,153455
297029,153426
297035,153444
297045,153430
297054,153411
297065,153418
297074,153408
297085,153428
297094,153386
297105,153377
297114,153363
297125,153369
297134,153350
297146,153362
297155,153371
297166,153365
297175,153362
297221,153321
297226,153399
297235,153385
297245,153384
297255,153390
297266,153408
297275,153386
297285,153397
297296,153395
297305,153389
297316,153413
297325,153404
297336,153427
297345,153456
297356,153462
297366,153454
297375,153476
297386,153461
297395,153488
297405,153505
297416,153526
297425,153548
297436,153560
297445,153582
297456,153576
297465,153591
297475,153573
297485,153570
297495,153586
297506,153581
297515,153555
297525,153560
297535,153578
297579,153560
297585,153557
297630,153606
297637,153643
297647,153685
297698,153614
297706,153593
297747,153497
297755,153501
297765,153491
297775,153502
297786,153507
297795,153509
297805,153511
297815,153489
297826,153477
297835,153440
297845,153448
297856,153443
297865,153411
297875,153407
297885,153420
297895,153461
297905,153459
297916,153487
297925,153448
297935,153468
297946,153466
297955,153416
297965,153425
297975,153422
298016,153406
298025,153436
298035,153392
298047,153422
298055,153389
298066,153403
298076,153435
298087,153428
298095,153423
298105,153435
298115,153444
298126,153503
298137,153516
298178,153522
298186,153538
298196,153521
298206,153557
298216,153571
298225,153510
298235,153511
298245,153520
298256,153584
298267,153618
298276,153566
298285,153588
298329,153614
298331,153433
298335,153651
298346,153660
298356,153696
298397,153687
298406,153732
298449,153790
298455,153752
298467,153792
298476,153801
298486,153782
298535,153627
298548,153634
298557,153653
298566,153609
298576,153574
298587,153579
298596,153579
298607,153589
298616,153597
298627,153588
298636,153595
298647,153581
298656,153558
298667,153501
298677,153482
298686,153463
298697,153426
298706,153392
298716,153360
298727,153349
298736,153358
298747,153379
298756,153392
298766,153396
298777,153427
298820,153456
298828,153500
298871,153469
298877,153546
298887,153540
298897,153532
298906,153530
298916,153530
298927,153521
298936,153536
298947,153577
298956,153618
298967,153639
299008,153738
299016,153701
299027,153697
299072,153606
299077,153493
299119,153527
299129,153439
299137,153436
299175,153438
299186,153557
299197,153598
299206,153623
299216,153638
299267,153730
299276,153706
299286,153733
299296,153792
299307,153810
299316,153788
299326,153784
299337,153836
299346,153803
299357,153796
299366,153719
299376,153675
299387,153669
299396,153599
299406,153591
299416,153577
299427,153584
299436,153557
299446,153557
299457,153602
299466,153590
299477,153624
299486,153610
299496,153628
299507,153631
299516,153631
299526,153650
299537,153665
299546,153662
299557,153679
299568,153686
299577,153676
299618,153695
299627,153681
299637,153720
299647,153711
299658,153705
299667,153720
299678,153726
299722,153740
299728,153779
299737,153842
299777,153875
299790,153893
299832,153944
299838,153950
299847,153958
299857,153952
299868,153925
299877,153949
299887,153965
299898,153955
299907,153971
299918,153999
299927,153997
299938,154042
299947,154068
299958,154065
299967,154092
299978,154105
300020,154123
300027,154107
300038,154132
300047,154172
300058,154177
300067,154203
300078,154192
300087,154226
300098,154223
300107,154236
300118,154255
300127,154263
300138,154250
300147,154251
300158,154263
300167,154267
300178,154272
300187,154279
300198,154259
300207,154245
300218,154232
300227,154188
300238,154176
300247,154130
300258,154115
300267,154073
300278,154100
300288,154055
300297,154057
300308,154053
300317,154021
300328,154061
300373,154116
300378,154066
300389,154032
300428,154124
300479,154161
300488,154171
300569,154158
300572,154188
300580,154216
300587,154199
300598,154255
300607,154237
300618,154272
300627,154275
300638,154285
300647,154279
300658,154312
300667,154313
300678,154310
300687,154324
300698,154301
300707,154319
300718,154315
300727,154316
300738,154335
300749,154362
300758,154387
300769,154375
300778,154420
300820,154396
300828,154489
300838,154463
300848,154442
300859,154468
300868,154444
300878,154437
300889,154452
300898,154468
300908,154466
300918,154467
300929,154450
300938,154483
300948,154477
300959,154494
300968,154489
300979,154499
300988,154461
300998,154450
301009,154413
301018,154384
301029,154348
301038,154328
301048,154325
301059,154312
301068,154302
301078,154287
301129,154303
301139,154298
301269,154384
301312,154381
301314,154489
301320,154413
301329,154409
301338,154421
301348,154431
301358,154429
301369,154436
301378,154451
301389,154447
301398,154464
301409,154477
301418,154441
301429,154450
301438,154449
301449,154464
301458,154453
301469,154472
301478,154448
301489,154473
301498,154477
301509,154508
301518,154494
301529,154520
301538,154494
301549,154528
301558,154540
301569,154569
301578,154559
301622,154585
301629,154565
301638,154575
301648,154591
301658,154596
301669,154630
301678,154619
301689,154654
301698,154594
301709,154609
301718,154561
301729,154537
301738,154459
301749,154449
301758,154380
301769,154388
301778,154336
301789,154352
301798,154299
301809,154337
301818,154328
301828,154322
301872,154380
301911,154332
301921,154364
301928,154361
301970,154416
301983,154424
301989,154438
301999,154435
302009,154440
302019,154435
302063,154433
302070,154449
302079,154407
302090,154437
302098,154420
302109,154426
302119,154419
302129,154427
302140,154450
302150,154436
302160,154456
302169,154450
302210,154461
302220,154487
302230,154485
302240,154479
302250,154503
302259,154520
302269,154534
302279,154540
302290,154545
302299,154577
302311,154560
302320,154592
302329,154559
302340,154586
302349,154585
302360,154588
302369,154602
302380,154604
302389,154620
302400,154605
302409,154596
302420,154564
302429,154536
302439,154514
302450,154456
302459,154438
302470,154388
302479,154367
302561,154289
302570,154309
302610,154305
302619,154318
302662,154283
302670,154273
302709,154306
302712,154602
302719,154328
302729,154296
302740,154307
302749,154278
302760,154312
302769,154274
302780,154309
302789,154265
302800,154296
302809,154282
302850,154258
302861,154298
302869,154270
302880,154297
302890,154312
302899,154275
302910,154336
302919,154316
302930,154348
302939,154323
302950,154358
302959,154349
302969,154316
302980,154377
302989,154341
303000,154374
303009,154353
303020,154394
303029,154371
303040,154428
303049,154403
303060,154431
303069,154434
303080,154450
303090,154448
303099,154448
303110,154462
303119,154453
303130,154446
303139,154435
303150,154394
303160,154354
303170,154310
303180,154267
303259,154134
303271,154119
303311,154105
303322,154097
303366,154120
303370,154121
303380,154106
303390,154122
303400,154103
303410,154116
303420,154130
303430,154123
303441,154114
303450,154134
303460,154109
303470,154121
303481,154145
303490,154132
303500,154124
303510,154124
303520,154121
303530,154102
303540,154094
303550,154085
303560,154101
303570,154100
303580,154116
303620,154151
303631,154146
303640,154146
303650,154145
303660,154165
303670,154187
303680,154189
303690,154220
303700,154205
303710,154219
303720,154235
303730,154234
303740,154243
303750,154261
303760,154281
303770,154291
303780,154294
303790,154278
303800,154295
303810,154284
