elapsed_ms,ir
55716,200508
55725,200482
55734,200514
55744,200523
55754,200525
55764,200519
55774,200524
55786,200528
55795,200529
55805,200527
55815,200527
55825,200531
55835,200523
55845,200505
55855,200525
55865,200506
55875,200507
55885,200498
55895,200501
55905,200504
55915,200494
55925,200477
55935,200471
55945,200454
55955,200445
55965,200421
55975,200409
55985,200421
55995,200403
56005,200405
56015,200403
56025,200409
56035,200413
56045,200412
56055,200425
56065,200421
56075,200411
56085,200430
56095,200418
56105,200424
56117,200426
56127,200430
56136,200436
56145,200402
56155,200449
56165,200414
56175,200409
56185,200395
56195,200391
56205,200408
56216,200409
56225,200391
56236,200395
56246,200400
56290,200397
56292,200421
56296,200410
56305,200421
56315,200391
56325,200383
56335,200392
56345,200376
56355,200383
56366,200395
56375,200391
56385,200380
56395,200365
56405,200361
56415,200364
56425,200362
56435,200350
56445,200342
56455,200339
56465,200327
56475,200334
56485,200331
56495,200337
56505,200335
56517,200353
56525,200322
56536,200381
56545,200337
56555,200324
56565,200314
56576,200372
56585,200336
56595,200317
56605,200309
56615,200303
56625,200300
56635,200300
56645,200311
56655,200317
56665,200293
56675,200306
56685,200305
56695,200327
56705,200293
56715,200304
56725,200320
56735,200304
56745,200305
56755,200316
56765,200332
56775,200337
56785,200328
56795,200311
56826,200317
56845,200305
56849,200311
56855,200293
56873,200262
56878,200238
56887,200237
56896,200206
56906,200173
56917,200140
56926,200149
56937,200140
56947,200140
56956,200149
56966,200164
56976,200163
56986,200171
56996,200154
57007,200180
57016,200187
57026,200166
57036,200171
57067,200167
57076,200142
57087,200161
57096,200157
57106,200147
57116,200163
57126,200167
57136,200138
57146,200136
57156,200155
57167,200136
57177,200133
57186,200141
57196,200131
57207,200144
57216,200127
57226,200140
57236,200140
57246,200127
57256,200149
57266,200133
57276,200156
57286,200155
57296,200161
57306,200149
57317,200140
57328,200154
57336,200158
57346,200142
57356,200141
57366,200135
57376,200161
57407,200135
57438,200102
57467,200141
57476,200134
57486,200124
57496,200129
57506,200141
57516,200123
57526,200131
57536,200113
57546,200117
57556,200109
57566,200118
57576,200106
57586,200119
57596,200109
57606,200114
57616,200112
57626,200110
57636,200109
57646,200120
57656,200088
57666,200079
57676,200103
57686,200090
57696,200087
57706,200090
57717,200079
57728,200102
57736,200047
57746,200009
57757,200044
57766,199974
57776,199976
57786,199910
57796,199918
57806,199938
57816,199920
57826,199925
57836,199951
57846,199948
57856,199965
57866,199945
57876,199971
57886,199981
57896,199969
57906,199956
57917,199971
57927,199993
57937,199978
57947,199962
57956,199977
57966,199980
57977,199956
57995,199978
57998,199962
58007,199994
58039,199958
58047,199954
58079,199923
58087,199944
58097,199949
58107,199956
58118,199961
58128,199942
58138,199963
58148,199956
58158,199956
58167,199968
58177,199946
58187,199946
58197,199963
58207,199941
58217,199911
58227,199936
58237,199914
58247,199924
58257,199901
58267,199915
58277,199896
58287,199892
58297,199872
58307,199889
58317,199868
58327,199860
58337,199849
58347,199837
58357,199813
58367,199820
58377,199813
58387,199782
58397,199772
58407,199812
58417,199835
58427,199840
58437,199871
58447,199912
58457,199924
58467,199943
58477,199970
58487,200000
58497,200000
58507,200033
58518,200016
58529,200040
58537,200061
58547,200063
58557,200100
58567,200128
58577,200143
58610,200227
58639,200358
58649,200379
58678,200416
58688,200452
58697,200495
58707,200535
58718,200597
58727,200586
58737,200657
58747,200667
58757,200668
58767,200696
58777,200701
58787,200729
58797,200761
58807,200743
58817,200729
58827,200731
58837,200740
58847,200746
58857,200735
58867,200740
58877,200743
58888,200800
58897,200781
58907,200807
58937,200861
58947,200841
58957,200873
58967,200865
58977,200894
58987,200926
58998,201018
59007,201073
59018,201140
59028,201237
59038,201300
59068,201365
59077,201417
59087,201466
59098,201511
59108,201561
59117,201676
59128,201733
59139,201820
59147,201943
59158,202023
59168,202099
59178,202173
59189,202224
59214,202333
59216,202410
59219,202504
59244,202588
59246,202674
59249,202754
59259,202861
59269,202910
59287,203037
59289,203152
59319,203508
59329,203653
59375,201300
59378,204431
59388,204591
59398,204720
59409,204887
59418,205078
59429,205221
59438,205368
59449,205554
59458,205719
59469,205849
59478,205961
59489,206067
59498,206140
59509,206217
59518,206232
59529,206304
59538,206352
59549,206373
59558,206394
59569,206489
59578,206575
59588,206671
59598,206801
59609,206926
59618,207058
59629,207189
59638,207295
59649,207419
59658,207511
59669,207631
59678,207723
59689,207845
59698,207950
59709,208088
59740,208463
59749,208590
59758,208720
59768,208828
59779,209026
59788,209151
59798,209270
59809,209446
59818,209540
59829,209739
59838,209853
59849,209975
59859,210022
59868,210058
59878,210066
59910,210033
59939,210052
59969,210275
59979,210372
59988,210394
59998,210453
60009,210588
60018,210669
60028,210815
60038,210920
60049,211076
60058,211168
60069,211327
60078,211471
60089,211651
60098,211823
60109,212008
60140,212312
60149,212225
60159,212194
60168,212133
60179,212135
60189,212194
60200,212275
60209,212396
60219,212540
60229,212706
60240,212842
60249,213002
60259,213127
60269,213197
60280,213297
60290,213422
60299,213589
60309,213713
60319,213754
60330,213775
60339,213772
60349,213661
60359,213571
60370,213462
60379,213344
60389,213334
60399,213436
60410,213549
60419,213647
60429,213682
60439,213667
60450,213676
60459,213718
60487,213742
60500,213785
60532,213755
60580,213826
60582,213002
60590,213900
60600,213847
60610,213856
60619,213837
60629,213760
60639,213746
60649,213759
60660,213748
60669,213625
60679,213946
60690,214616
60699,214714
60709,214913
60719,215114
60729,215251
60740,215374
60749,215432
60759,215508
60770,215571
60779,215637
60790,215707
60799,215754
60810,215770
60820,215755
60829,215710
60839,215640
60850,215633
60859,215586
60869,215582
60879,215576
60890,215662
60899,215676
60909,215745
60942,215926
60952,215913
60959,215979
60970,216095
60979,216113
60989,216120
60999,216130
61010,216200
61019,216150
61029,216128
61039,216069
61050,216080
61059,216043
61069,216065
61079,216082
61090,216164
61099,216182
61131,216377
61140,216468
61171,216521
61180,216576
61211,216767
61219,216773
61230,216849
61239,216892
61250,216924
61259,216955
61270,217000
61281,217026
61290,217086
61300,217153
61311,217242
61341,217397
61350,217455
61360,217501
61370,217579
61380,217665
61391,217701
61400,217759
61410,217783
61421,217786
61431,217778
61441,217782
61450,217772
61460,217803
61470,217829
61481,217873
61490,217911
61500,217984
61511,218022
61521,218109
61530,218180
61540,218287
61551,218344
61561,218405
61570,218445
61580,218463
61591,218486
61601,218516
61610,218526
61620,218536
61631,218516
61641,218484
61650,218494
61660,218591
61671,218602
61681,218572
61690,218669
61700,218723
61711,218751
61759,218966
61762,217778
61771,219248
61782,219324
61791,219396
61822,219347
61832,219314
61865,219406
61871,219498
61880,219523
61890,219558
61901,219686
61910,219790
61920,219926
61930,220033
61941,220181
61950,220289
61961,220373
61970,220405
61980,220382
61991,220464
62001,220492
62010,220520
62020,220546
62031,220654
62041,220700
62050,220655
62060,220594
62071,220595
62081,220567
62090,220547
62100,220522
62111,220568
62142,220636
62151,220619
62160,220625
62170,220687
62180,220725
62191,220869
62201,220938
62210,220958
62220,220998
62231,221127
62241,221204
62250,221259
62260,221308
62270,221396
62281,221499
62290,221500
62300,221547
62311,221583
62321,221588
62330,221583
62340,221576
62351,221559
62361,221514
62370,221463
62404,221333
62412,221374
62422,221344
62452,221444
62461,221522
62489,221541
62502,221574
62511,221619
62544,221729
62551,221791
62561,221858
62572,221878
62581,221923
62592,222007
62601,222091
62612,222163
62621,222272
62632,222341
62641,222410
62651,222449
62662,222455
62671,222453
62681,222434
62691,222401
62701,222389
62711,222373
62722,222347
62731,222357
62741,222424
62751,222486
62761,222561
62772,222605
62782,222598
62791,222660
62801,222745
62812,222779
62821,222823
62832,222842
62842,222875
62851,222969
62861,222971
62871,223046
62881,223073
62892,223138
62901,223207
62912,223270
62943,223301
62951,223289
62962,223269
62971,223223
62981,223200
62991,223229
63001,223355
63012,223450
63022,223563
63032,223665
63041,223709
63051,223742
63062,223748
63072,223728
63102,223710
63105,222605
63111,223861
63122,223975
63132,224090
63142,224197
63151,224239
63162,224335
63171,224324
63181,224349
63191,224337
63201,224298
63211,224275
63221,224250
63232,224293
63242,224345
63252,224445
63261,224517
63271,224599
63302,224882
63314,224959
63323,224929
63375,225035
63382,225107
63408,225204
63411,225209
63414,225261
63423,225282
63453,225286
63463,225259
63488,225176
63490,225169
63493,224324
63501,225108
63511,225076
63522,225038
63531,225017
63542,224976
63551,224925
63562,224895
63571,224927
63583,225030
63592,225493
63602,225729
63612,225943
63622,226148
63633,226261
63642,226332
63653,226390
63662,226411
63672,226493
63683,226551
63692,226577
63703,226653
63712,226743
63723,226886
63732,226992
63742,226890
63752,226564
63762,226157
63773,225834
63782,225682
63792,225550
63803,225412
63812,225225
63843,224672
63853,224634
63862,224593
63872,224507
63883,224408
63892,224203
63902,223938
63912,223769
63922,223715
63933,223722
63942,223650
63952,223536
63963,223442
63972,223248
63982,223394
63992,223695
64023,224690
64034,225283
64062,226503
64093,226729
64122,227087
64132,227027
64142,227395
64153,227530
64162,227792
64173,227932
64182,228020
64192,228075
64203,228210
64212,228274
64222,228396
64253,228468
64264,228318
64272,228128
64283,227890
64292,227619
64302,227429
64312,227308
64322,227263
64333,227229
64342,227157
64352,227015
64363,226895
64372,226714
64382,226543
64392,226374
64402,226139
64413,225923
64422,225625
64432,225351
64443,225033
64452,224635
64462,224230
64472,223702
64482,222995
64493,222327
64502,222593
64512,222391
64522,222742
64532,223253
64543,223331
64552,223258
64562,223240
64573,223149
64582,222974
64592,222796
64603,222603
64612,222341
64660,220904
64691,219491
64704,218218
64735,216496
64744,216300
64753,216605
64763,216394
64774,216328
64783,216230
64794,216254
64803,216361
64814,216427
64823,216469
64834,216466
64843,216546
64854,216770
64863,217055
64874,217512
64884,217999
64893,218401
64903,218710
64913,219030
64923,219430
64933,219876
64944,220308
64953,220828
64963,220974
64974,221052
64983,221247
64994,221468
65003,221619
65013,221761
65043,222523
65053,222925
65063,223396
65073,223974
65083,224395
65094,224724
65103,224644
65113,224406
65123,224411
65134,224712
65143,224769
65154,224670
65163,224803
65173,224932
65183,225037
65193,225107
65204,225137
65213,225097
65223,225070
65234,225047
65265,225015
65294,224962
65304,225095
65336,225477
65344,225705
65353,225831
65364,225899
65373,225853
65383,225738
65393,225693
65403,225723
65413,225820
65423,225828
65433,225818
65444,225707
65474,225521
65483,225547
65493,225609
65504,225580
65513,225375
65523,224999
65534,224704
65543,224561
65554,224431
65563,224250
65574,224208
65583,224188
65594,224180
65603,224053
65614,224034
65623,223969
65634,224044
65643,224029
65654,224143
65663,224179
65674,224357
65683,224506
65694,224682
65703,224791
65713,224917
65723,225026
65733,225152
65744,225332
65753,225392
65763,225551
65773,225722
65783,225917
65793,226070
65804,226237
65813,226341
65845,226625
65876,227168
65885,227310
65915,228012
65925,228204
65956,228262
65966,228265
65974,228353
65984,228425
65995,228422
66004,228444
66014,228460
66024,228482
66035,228555
66044,228591
66054,228626
66064,228655
66075,228689
66084,228751
66094,228814
66104,228795
66115,228811
66125,228807
66134,228797
66144,228793
66155,228798
66164,228846
66174,228905
66185,228961
66194,228980
66204,228975
66215,228996
66247,228857
66255,228774
66264,228722
66275,228701
66284,228697
66295,228720
66304,228753
66314,228745
66325,228839
66334,228930
66344,228941
66355,228948
66364,228965
66374,228943
66385,228955
66394,229016
66404,229077
66415,229125
66424,229117
66434,229137
66444,229162
66455,229168
66464,229176
66496,229150
66526,229162
66535,229180
66545,229145
66572,229107
66586,229017
66625,228942
66656,228759
66665,228646
66674,228599
66685,228582
66694,228435
66704,228335
66715,228326
66725,228295
66734,228215
66744,228240
66755,228179
66764,228089
66775,228053
66784,227965
66794,227894
66804,227849
66815,227809
66824,227723
66834,227598
66844,227543
66855,227516
66864,227418
66874,227339
66884,227310
66894,227301
66904,227324
66914,227379
66924,227464
66934,227529
66945,227618
66955,227683
66964,227701
66975,227707
66984,227724
66995,227760
67006,227799
67015,227842
67046,228036
67054,228111
67066,228225
67074,228264
67085,228269
67095,228257
67105,228240
67115,228164
67125,228132
67135,228114
67146,228072
67156,228099
67166,228079
67175,228034
67185,228003
67195,227953
67206,227836
67236,227516
67246,227416
67255,227346
67266,227243
67276,227212
67285,227187
67295,227148
67305,227116
67316,227073
67325,227014
67336,226969
67345,226930
67356,226873
67365,226844
67376,226782
67385,226659
67395,226551
67405,226474
67436,226169
67446,226117
67477,226065
67487,226120
67516,226272
67548,226587
67575,226628
67585,226667
67595,226646
67605,226659
67616,226684
67625,226713
67636,226752
67645,226781
67655,226844
67666,226912
67675,226962
67685,227011
67696,227033
67705,227019
67716,227019
67726,226942
67735,226849
67745,226724
67755,226590
67766,226455
67775,226320
67785,226169
67795,226062
67805,225945
67816,225890
67847,225215
67857,224982
67865,224505
67876,224133
67885,223763
67896,223489
67905,223201
67916,223062
67925,222882
67935,222788
67945,222694
67956,222579
67965,222348
67975,222070
67986,221953
67995,221792
68005,221652
68016,221503
68025,221321
68036,221146
68045,220910
68055,220767
68066,220662
68075,220596
68085,220585
68117,221005
68126,221116
68159,225561
68165,221311
68205,221341
68217,221367
68258,221556
68267,221643
68277,221661
68286,221620
68296,221678
68307,221790
68316,221871
68327,221940
68336,222052
68347,222222
68356,222432
68367,222693
68376,223000
68386,223225
68397,223360
68406,223542
68417,223665
68426,223962
68436,224158
68447,224296
68456,224499
68467,224712
68476,224937
68487,225167
68496,225287
68507,225451
68516,225662
68526,225900
68537,226244
68546,226521
68556,226705
68567,226792
68576,226805
68587,226779
68596,226680
68606,226655
68617,226221
68648,225086
68657,224584
68666,224134
68677,223865
68686,223898
68697,224145
68706,224400
68737,224755
68746,224947
68777,225329
68786,225340
68819,224910
68826,224723
68836,224488
68847,224340
68856,224210
68866,224051
68877,223991
68886,223952
68897,223853
68906,223725
68917,223658
68926,223547
68936,223486
68947,223446
68956,223344
68966,223318
68977,223309
68986,223191
68996,223134
69007,223090
69016,223002
69049,222856
69057,222855
69067,222807
69076,222763
69086,222734
69097,222777
69106,222692
69117,222693
69126,222651
69137,222662
69146,222614
69157,222663
69166,222621
69177,222643
69186,222597
69197,222597
69206,222540
69216,222519
69227,222506
69236,222457
69247,222441
69256,222395
69267,222361
69276,222281
69287,222221
69296,222167
69307,222119
69317,222119
69352,222093
69358,222115
69398,222018
69406,222121
69439,222121
69469,222106
69478,222113
69489,222126
69497,222117
69507,222089
69517,222101
69527,222120
69537,222129
69547,222101
69557,222092
69567,222065
69577,222067
69587,222043
69597,222063
69607,222040
69617,222037
69627,222060
69637,222060
69647,222087
69657,222092
69667,222070
69677,222075
69687,222040
69697,222037
69707,222026
69717,222049
69727,222095
69737,222082
69748,222084
69757,222098
69768,222087
69777,222094
69787,222042
69798,221978
69807,221946
69839,221920
69849,221847
69859,221859
69868,221856
69877,221869
69887,221867
69898,221867
69907,221863
69917,221851
69928,221866
69937,221844
69948,221866
69957,221802
69968,221801
69977,221785
70009,221759
70018,221742
70027,221703
70060,221625
70070,221635
70077,221591
70109,221566
70119,221537
70127,221519
70138,221520
70147,221504
70158,221521
70167,221477
70178,221502
70187,221471
70198,221474
70207,221391
70217,221383
70259,221330
70269,221349
70277,221323
70287,221299
70298,221332
70307,221308
70317,221290
70328,221344
70337,221321
70348,221341
70358,221331
70367,221311
70378,221327
70387,221311
70398,221311
70407,221281
70418,221307
70427,221297
70438,221294
70448,221314
70458,221316
70468,221313
70478,221303
70488,221304
70498,221306
70508,221318
70519,221301
70528,221299
70538,221302
70548,221309
70558,221302
70568,221305
70578,221288
70588,221292
70598,221301
70608,221295
70618,221290
70649,221278
70679,221262
70690,221239
70698,221252
70729,221244
70740,221238
70750,221267
70759,221303
70788,221156
70819,220916
70829,220900
70859,220895
70868,220886
70878,220862
70888,220854
70898,220860
70908,220861
70919,220857
70928,220865
70938,220853
70948,220869
70958,220883
70968,220852
70978,220851
70988,220809
70998,220813
71008,220787
71018,220779
71048,220789
71058,220792
71068,220765
71078,220776
71089,220748
71098,220714
71108,220702
71119,220744
71128,220701
71138,220715
71149,220717
71158,220689
71168,220691
71179,220706
71188,220673
71198,220684
71208,220696
71219,220698
71251,220704
71254,220857
71259,220703
71269,220723
71278,220683
71289,220735
71299,220734
71309,220725
71320,220762
71328,220741
71339,220782
71348,220726
71359,220703
71368,220648
71379,220625
71389,220588
71399,220531
71408,220515
71419,220546
71428,220487
71438,220468
71470,220520
71480,220480
71489,220510
71523,220463
71554,220443
71558,220435
71568,220430
71600,220458
71610,220427
71620,220456
71629,220457
71640,220432
71650,220446
71660,220436
71669,220428
71679,220496
71690,220589
71700,220613
71709,220631
71719,220600
71730,220623
71740,220647
71749,220645
71759,220664
71770,220670
71780,220663
71789,220676
71799,220653
71810,220652
71820,220679
71860,220676
71869,220678
71879,220658
71890,220650
71900,220648
71909,220653
71919,220648
71930,220645
71940,220622
71949,220649
71959,220632
71969,220619
71979,220632
71989,220656
71999,220651
72009,220612
72019,220626
72029,220637
72039,220628
72049,220599
72082,220571
72091,220556
72101,220570
72133,220520
72139,220532
72171,220453
72180,220477
72189,220487
72199,220488
72209,220496
72219,220487
72229,220487
72263,220518
72270,220492
72279,220489
72289,220481
72299,220485
72309,220493
72319,220475
72329,220498
72339,220470
72349,220468
72359,220474
72369,220518
72379,220534
72389,220551
72399,220562
72409,220540
72419,220484
72429,220424
72439,220328
72449,220285
72459,220234
72469,220217
72479,220232
72489,220221
72499,220191
72509,220194
72519,220214
72529,220206
72539,220217
72549,220205
72559,220216
72569,220197
72579,220209
72589,220201
72599,220210
72609,220175
72619,220156
72650,220151
72661,220212
72669,220227
72679,220217
72711,220079
72721,220146
72782,220111
72814,220063
72821,220047
72830,220060
72840,220056
72851,220067
72861,220061
72871,220043
72880,220069
72891,220061
72901,220079
72911,220077
72921,220078
72930,220072
72941,220067
72951,220080
72960,220081
72971,220084
72981,220081
72991,220096
73000,220077
73011,220086
73022,220061
73051,220013
73062,219980
73070,219959
73081,219967
73091,219941
73101,219941
73111,219936
73120,219940
73131,219922
73141,219925
73151,219940
73160,219947
73171,219925
73181,219936
73191,219943
73200,219979
73211,219983
73221,220028
73231,220036
73240,220062
73251,220072
73261,220075
73271,220073
73280,220065
73291,220083
73301,220101
73311,220093
73321,220090
73361,220090
73391,220032
73401,219952
73431,219649
73440,219688
73472,219741
73481,219641
73492,219640
73500,219700
73511,219685
73521,219671
73531,219683
73541,219708
73551,219717
73560,219693
73571,219718
73581,219721
73591,219722
73600,219664
73611,219721
73621,219725
73631,219773
73640,219776
73651,219820
73661,219825
73671,219834
73680,219790
73691,219796
73701,219758
73711,219739
73720,219704
73731,219724
73741,219718
73751,219722
73760,219687
73771,219720
73781,219731
73791,219722
73800,219714
73811,219732
73854,219906
73862,219973
73871,219991
73881,219996
73891,220011
73902,220023
73911,220014
73921,220045
73931,220051
73941,220043
73951,220058
73962,220065
73972,220049
73982,220040
74011,219996
74042,220035
74053,220015
74063,220025
74094,219720
74101,219985
74131,219967
74134,219714
74142,219946
74151,219943
74161,219937
74171,219928
74181,219895
74191,219891
74201,219902
74211,219912
74221,219925
74231,219920
74272,219957
74281,219948
74291,219989
74302,219980
74312,219941
74322,219903
74332,219818
74342,219735
74351,219699
74362,219664
74372,219642
74382,219662
74391,219655
74401,219664
74412,219652
74422,219650
74431,219642
74442,219632
74452,219608
74461,219616
74471,219607
74482,219631
74492,219637
74502,219645
74512,219638
74521,219638
74532,219649
74542,219660
74551,219653
74562,219692
74572,219695
74582,219695
74591,219689
74602,219689
74613,219665
74644,219662
74651,219664
74681,219681
74694,219667
74723,219664
74732,219712
74764,219782
74766,219642
74773,219827
74804,219607
74811,219795
74821,219791
74831,219787
74842,219831
74852,219824
74862,219850
74871,219815
74882,219856
74892,219869
74902,219854
74913,219871
74921,219884
74932,219878
74942,219875
74951,219879
74962,219874
74972,219904
74982,219880
74993,219898
75003,219905
75012,219900
75043,219883
75052,219896
75062,219858
75073,219896
75083,219903
75093,219883
75102,219903
75111,219911
75123,219894
75133,219921
75142,219898
75152,219895
75163,219900
75172,219908
75181,219902
75193,219902
75202,219884
75213,219914
75253,219970
75263,219951
75272,219901
75282,219844
75293,219757
75303,219719
75313,219667
75323,219653
75333,219645
75342,219669
75352,219654
75363,219664
75372,219680
75382,219685
75392,219681
75402,219693
75412,219662
75423,219704
75431,219684
75465,219700
75473,219649
75508,219643
75513,219682
75544,219720
75552,219715
75562,219691
75572,219685
75603,219665
75613,219637
75624,219607
75632,219595
75642,219567
75652,219549
75662,219562
75673,219578
75683,219561
75692,219537
75702,219500
75712,219512
75722,219513
75733,219546
75743,219542
75752,219482
75762,219466
75772,219462
75782,219464
75793,219508
75803,219499
75813,219478
75823,219459
75853,219391
75863,219380
75874,219373
75883,219417
75892,219365
75902,219355
75912,219350
75922,219342
75932,219340
75942,219330
75953,219371
75963,219368
75973,219368
75983,219358
75992,219306
76002,219319
76012,219319
76022,219315
76033,219337
76043,219351
76078,219321
76083,219309
76115,219281
76123,219277
76156,219269
76163,219343
76174,219334
76183,219365
76194,219375
76203,219360
76213,219377
76223,219355
76255,219133
76263,219094
76274,219092
76283,219062
76293,219051
76303,219049
76313,219045
76323,219030
76333,219027
76343,219040
76354,219029
76363,219051
76373,219034
76383,219051
76394,219040
76403,219041
76413,219025
76423,219002
76434,219002
76443,218980
76453,219000
76463,218989
76474,219015
76483,219028
76493,219048
76503,219052
76513,219065
76523,219046
76533,219048
76543,219046
76553,219020
76563,219076
76573,219077
76583,219079
76594,219067
76603,219063
76645,219218
76654,219305
76664,219355
76695,219394
76705,219397
76734,219448
76746,219451
76784,219415
76794,219412
76803,219365
76813,219353
76823,219348
76834,219374
76844,219380
76854,219374
76864,219362
76874,219389
76884,219377
76894,219375
76904,219368
76914,219372
76923,219344
76933,219328
76943,219330
76953,219360
76963,219329
76973,219320
76983,219316
76994,219355
77003,219295
77014,219299
77045,219327
77054,219339
77064,219392
77073,219336
77083,219392
77093,219387
77103,219409
77114,219454
77124,219480
77134,219445
77144,219367
77153,219279
77163,219256
77173,219225
77183,219236
77194,219234
77204,219246
77214,219268
77223,219286
77234,219269
77244,219292
77254,219339
77264,219334
77275,219352
77284,219363
77317,219353
77325,219365
77334,219354
77375,219354
77385,219376
77426,219401
77435,219391
77468,219369
77476,219426
77485,219399
77494,219406
77504,219385
77514,219396
77524,219396
77534,219424
77544,219440
77555,219439
77564,219400
77574,219310
77584,219232
77595,219191
77604,219156
77614,219140
77624,219112
77635,219048
77644,219004
77654,219004
77664,218958
77675,218937
77684,218919
77694,218923
77704,218961
77714,218967
77725,218963
77734,218967
77744,218986
77755,218998
77764,219026
77774,219048
77784,219068
77794,219074
77804,219064
77815,219079
77846,219076
77855,219073
77864,219084
77874,219078
77884,219063
77894,219041
77904,219035
77915,219061
77925,219053
77934,219037
77964,218980
77975,219013
78016,219037
78024,219042
78055,218915
78096,218732
78105,218703
78135,218677
78144,218704
78154,218688
78164,218706
78174,218738
78184,218775
78195,218832
78204,218822
78214,218829
78224,218857
78234,218844
78244,218848
78277,218842
78284,218846
78295,218845
78305,218875
78315,218882
78325,218890
78335,218908
78345,218903
78354,218884
78364,218896
78375,218882
78385,218899
78395,218874
78405,218865
78415,218882
78425,218876
78435,218866
78445,218837
78455,218824
78465,218823
78475,218845
78485,218837
78495,218834
78505,218825
78516,218835
78525,218824
78535,218827
78545,218833
78555,218823
78565,218828
78576,218822
78585,218839
78595,218835
78605,218858
78647,218764
78680,218689
78682,218903
78689,218589
78695,218545
78706,218550
78766,218457
78769,218383
78776,218427
78785,218407
78795,218363
78805,218353
78815,218330
78825,218303
78835,218258
78845,218257
78855,218256
78865,218260
78875,218251
78885,218237
78895,218274
78905,218294
78916,218288
78925,218281
78935,218299
78945,218315
78956,218320
78965,218301
78975,218314
78985,218337
78995,218308
79005,218329
79015,218346
79047,218381
79057,218397
79066,218425
79076,218406
79086,218408
79096,218395
79106,218419
79116,218429
79126,218363
79135,218322
79146,218348
79155,218447
79165,218553
79175,218681
79186,218804
79196,218946
79206,219034
79216,219204
79225,219215
79236,219292
79265,219478
79276,219523
79285,219565
79295,219600
79306,219676
79316,219669
79325,219713
79335,219717
79345,219760
79356,219815
79366,219806
79375,219775
79386,219757
79395,219763
79405,219732
79415,219725
79426,219747
79436,219750
79445,219726
79478,219697
79486,219652
79498,219650
79537,219494
79570,219405
79576,219427
79617,219383
79627,219351
79636,219384
79646,219389
79656,219415
79666,219409
79676,219435
79686,219443
79696,219427
79706,219394
79716,219308
79726,219234
79736,219168
79746,219118
79756,219074
79766,219040
79776,219040
79786,219017
79796,219008
79806,218962
79816,218954
79826,218941
79867,218968
79876,219000
79886,218991
79896,219009
79906,219031
79916,219036
79926,219080
79936,219094
79946,219124
79956,219143
79966,219166
79977,219200
79986,219232
79996,219242
80006,219257
80016,219258
80026,219289
80036,219297
80046,219309
80056,219305
80066,219286
80109,219293
80119,219287
80126,219238
80157,219217
80168,219233
80198,219191
80207,219217
80216,219179
80257,219106
80268,219099
80277,219070
80286,219016
80296,218976
80306,218944
80316,218928
80327,218937
80336,218869
80346,218877
80356,218848
80366,218827
80376,218810
80386,218815
80396,218825
80406,218844
80416,218829
80426,218849
80436,218849
80446,218863
80456,218843
80466,218835
80476,218870
80486,218833
80496,218789
80506,218763
80516,218747
80526,218762
80536,218740
80546,218761
80557,218787
80566,218778
80578,218774
80587,218812
80597,218835
80608,218835
80647,218912
80658,218914
80667,218931
80678,218867
80687,218806
80698,218777
80707,218740
80739,218617
80749,218644
80759,218646
80799,218598
80831,218592
80839,218545
80849,218541
80857,218529
80867,218531
80877,218539
80888,218529
80897,218528
80908,218534
80917,218553
80928,218558
80937,218570
80948,218578
80957,218538
80968,218563
80977,218572
80988,218551
80997,218567
81008,218544
81048,218550
81058,218579
81068,218548
81077,218570
81088,218597
81097,218589
81108,218601
81117,218617
81127,218621
81137,218632
81147,218638
81157,218640
81167,218667
81177,218645
81187,218659
81197,218674
81207,218724
81217,218685
81227,218660
81237,218594
81247,218605
81257,218590
81267,218540
81277,218443
81287,218375
81297,218357
81307,218290
81317,218201
81327,218156
81337,218115
81347,218075
81381,218101
81387,218075
81398,218101
81451,218073
81458,218116
81467,218158
81501,218645
81508,218322
81519,218335
81550,218329
81558,218310
81569,218301
81577,218254
81587,218278
81597,218304
81607,218302
81617,218282
81627,218311
81637,218329
81647,218338
81657,218356
81667,218379
81678,218403
81689,218398
81698,218398
81709,218397
81717,218397
81729,218426
81738,218447
81749,218470
81758,218482
81768,218499
81779,218533
81788,218557
81798,218538
81809,218591
81848,218617
81859,218647
81868,218627
81878,218659
81889,218642
81898,218641
81909,218642
81918,218646
81929,218640
81938,218679
81948,218688
81958,218702
81969,218720
81978,218784
81989,218838
81998,218856
82009,218914
82018,218904
82029,218920
82038,218901
82049,218928
82058,218917
82069,218977
82138,219077
82172,219156
82174,218600
82180,219125
82211,218659
82219,219301
82259,219291
82290,219309
82301,219304
82309,219348
82318,219330
82329,219359
82339,219304
82348,219240
82358,219172
82369,219147
82378,219095
82389,219083
82398,219088
82409,219082
82418,219056
82429,219105
82438,219101
82449,219140
82458,219147
82468,219137
82478,219114
82489,219164
82498,219175
82509,219208
82519,219262
82528,219242
82539,219312
82548,219296
82558,219279
82569,219296
82578,219274
82589,219288
82598,219207
82609,219254
82649,219326
82659,219366
82669,219347
82678,219339
82688,219338
82699,219360
82708,219359
82718,219363
82729,219363
82738,219282
82749,219257
82758,219175
82789,219275
82829,219167
82861,219312
82868,219198
82878,219238
82889,219275
82900,219278
82909,219232
82919,219210
82929,219203
82939,219177
82949,219132
82960,219089
82969,219027
82979,218952
82989,218909
83000,218910
83009,218970
83050,219440
83059,219615
83070,219812
83080,220021
83090,220220
83100,220405
83110,220633
83118,220853
83129,221161
83139,221467
83150,221653
83158,221850
83169,221894
83180,221968
83190,222013
83200,222048
83239,222219
83250,222253
83259,222265
83270,222261
83278,222243
83290,222252
83299,222244
83310,222167
83319,222119
83329,222057
83339,222032
83349,222014
83359,222038
83369,222056
83380,222041
83389,222051
83399,222062
83409,222055
83441,222123
83451,222109
83483,221850
83490,221942
83524,221848
83529,221853
83540,221831
83579,221667
83591,221588
83599,221535
83610,221472
83619,221448
83629,221368
83639,221309
83650,221274
83659,221153
83669,221080
83679,221014
83690,220960
83699,220875
83709,220844
83719,220784
83730,220747
83739,220669
83749,220611
83759,220569
83770,220516
83779,220451
83789,220404
83799,220397
83810,220374
83851,220222
83860,220220
83871,220256
83879,220178
83890,220245
83899,220263
83909,220327
83919,220417
83930,220584
83939,220653
83949,220723
83959,220739
83970,220797
83979,220793
83989,220836
83999,220835
84010,220829
84019,220761
84061,220410
84101,220360
84133,220336
84141,220369
84151,220395
84160,220370
84170,220385
84181,220376
84190,220351
84200,220326
84210,220306
84220,220271
84231,220197
84241,220171
84251,220147
84292,220139
84302,220149
84310,220156
84320,220085
84331,220066
84340,220034
84350,219989
84360,219937
84370,219892
84381,219888
84390,219873
84400,219861
84410,219861
84421,219849
84430,219862
84441,219818
84450,219750
84460,219744
84471,219720
84481,219691
84490,219687
84500,219660
84511,219650
84520,219641
84530,219641
84540,219619
84551,219619
84560,219603
84570,219626
84581,219631
84590,219646
84600,219702
84610,219713
84652,219749
84685,219796
84687,219989
84694,219804
84702,219921
84741,220166
84751,220394
84790,220890
84802,220944
84811,220958
84820,220901
84830,220858
84840,220812
84850,220754
84861,220535
84870,220526
84880,220598
84890,220503
84901,220548
84910,220515
84920,220517
84930,220491
84940,220435
84951,220408
84960,220300
84970,220258
84981,220291
84990,220249
85000,220273
85011,220351
85051,220443
85062,220553
85071,220599
85081,220706
85090,220693
85100,220720
85111,220758
85121,220751
85130,220742
85140,220741
85150,220728
85161,220687
85170,220591
85180,220603
85191,220599
85201,220545
85212,220529
85221,220456
85232,220390
85241,220337
85252,220282
85261,220249
85272,220220
85281,220231
85292,220219
85301,220146
85335,220073
85342,220062
85382,219914
85394,219885
85433,219884
85442,219878
85452,219834
85482,219699
85491,219590
85501,219575
85511,219563
85521,219505
85531,219483
85541,219426
85551,219381
85562,219319
85571,219195
85581,219113
85591,219064
85602,218948
85611,218882
85621,218807
85631,218758
85641,218687
85651,218638
85662,218562
85671,218595
85682,218573
85691,218604
85701,218610
85711,218660
85721,218679
85731,218695
85742,218685
85751,218635
85762,218536
85771,218525
85781,218448
85791,218419
85802,218429
85811,218385
85856,218412
85862,218377
85872,218375
85881,218349
85892,218398
85901,218372
85911,218357
85921,218350
85931,218368
85941,218325
85951,218337
85983,218562
85993,218224
86033,218099
86042,218051
86113,218065
86123,218063
86163,218196
86171,218165
86181,218170
86191,218168
86201,218180
86211,218199
86222,218224
86231,218208
86241,218198
86251,218221
86294,218320
86305,218280
86312,218262
86322,218241
86332,218250
86341,218241
86352,218246
86362,218239
86372,218253
86382,218256
86393,218274
86402,218302
86413,218309
86422,218340
86432,218352
86443,218358
86452,218392
86462,218411
86472,218423
86482,218444
86493,218449
86502,218455
86512,218465
86522,218461
86532,218389
86543,218359
86552,218306
86562,218239
86572,218210
86582,218216
86592,218197
86602,218203
86613,218206
86654,218257
86664,218265
86704,218318
86713,218343
86753,218345
86793,218390
86802,218395
86813,218404
86822,218430
86833,218422
86842,218414
86853,218408
86862,218439
86872,218434
86883,218468
86892,218476
86902,218458
86912,218462
86923,218462
86932,218485
86942,218470
86953,218500
86962,218498
86973,218538
86982,218563
86992,218575
87003,218642
87012,218651
87054,219021
87063,219166
87072,219343
87082,219512
87092,219579
87102,219614
87112,219618
87123,219633
87133,219602
87143,219583
87153,219549
87163,219558
87172,219539
87182,219542
87193,219498
87203,219434
87214,219364
87222,219330
87252,219133
87262,219019
87272,218959
87282,219016
87294,219148
87303,219266
87312,219337
87322,219480
87332,219570
87342,219607
87352,219600
87362,219507
87372,219426
87383,219378
87393,219383
87435,219442
87446,219440
87453,219352
87485,219339
87493,219378
87526,219453
87534,219458
87567,219522
87574,219586
87612,219469
87623,219483
87633,219409
87643,219319
87654,219249
87663,219194
87674,219096
87683,219143
87694,219184
87703,219250
87714,219269
87723,219294
87733,219312
87744,219274
87753,219259
87763,219249
87774,219211
87783,219155
87794,219114
87803,219069
87813,219022
87854,219012
87863,219000
87873,218982
87883,218966
87893,218946
87904,218937
87913,218916
87923,218915
87934,218888
87943,218883
87954,218885
87963,218908
87974,218891
87984,218885
87993,218905
88003,218906
88014,218895
88023,218940
88057,218943
88065,219075
88074,219102
88083,219102
88117,219039
88125,219067
88133,219034
88165,218979
88174,218926
88184,218883
88193,218878
88203,218832
88213,218814
88223,218791
88258,218843
88261,218915
88264,218930
88273,218952
88283,218970
88294,219032
88303,219034
88314,219063
88323,219031
88333,219079
88344,219107
88353,219097
88363,219074
88373,219061
88384,219098
88393,219072
88403,219057
88414,219121
88424,219121
88433,219060
88443,219033
88454,219063
88464,219053
88473,218976
88483,219029
88494,219076
88503,219035
88513,219038
88524,219038
88533,219011
88543,219035
88553,219063
88563,219086
88573,219112
88583,219173
88593,219211
88603,219301
88614,219337
88655,219467
88664,219484
88673,219519
88709,219622
88714,219662
88725,219665
88765,219937
88804,220249
88816,220230
88824,220192
88834,220221
88844,220230
88854,220234
88865,220220
88874,220230
88884,220207
88895,220201
88904,220187
88915,220137
88924,220073
88934,220058
88944,220000
88955,219974
88964,219949
88974,219971
88985,219972
88994,219949
89004,219989
89015,219986
89055,220064
89064,220088
89074,220107
89084,220144
89095,220142
89104,220139
89114,220157
89124,220164
89134,220070
89145,220007
89154,219977
89164,219915
89174,219821
89185,219803
89194,219819
89205,219810
89214,219848
89224,219852
89235,219868
89244,219899
89254,219891
89265,219922
89274,219953
89284,219992
89295,219997
89304,220028
89314,220019
89355,219921
89367,219925
89375,219896
89418,219671
89426,219700
89468,219698
89475,219646
89526,219696
89536,219688
89544,219677
89554,219688
89564,219697
89575,219737
89584,219674
89595,219657
89604,219565
89614,219547
89625,219522
89634,219452
89644,219472
89655,219446
89664,219361
89674,219344
89685,219345
89694,219282
89704,219275
89714,219255
89724,219261
89734,219255
89744,219199
89754,219118
89765,219075
89774,218973
89785,218936
89794,218863
89804,218794
89815,218754
89864,218466
89876,218419
89885,218404
89896,218410
89905,218390
89915,218419
89925,218419
89936,218436
89945,218432
89956,218438
89965,218431
89976,218417
89985,218423
89996,218412
90005,218396
90015,218372
90026,218355
90035,218347
90086,218322
90127,218298
90135,218246
90182,218217
90185,218175
90196,218182
90276,218130
90287,218074
90367,218065
90375,218094
90386,218064
90395,218070
90405,218074
90416,218071
90425,218068
90435,218063
90445,218073
90456,218066
90465,218067
90475,218041
90485,218027
90496,218029
90505,218029
90516,218024
90525,218024
90535,218016
90546,218035
90555,217999
90565,217981
90576,217976
90585,217916
90596,217891
90605,217821
90616,217798
90658,217721
90666,217732
90675,217714
90686,217731
90695,217701
90706,217739
90715,217730
90725,217742
90736,217780
90745,217742
90756,217778
90765,217733
90776,217784
90785,217710
90796,217756
90805,217714
90815,217742
90825,217740
90835,217744
90845,217746
90856,217766
90905,217481
90946,217314
90996,217291
91006,217262
91015,217258
91026,217291
91037,217295
91047,217284
91088,217206
91096,217239
91106,217264
91116,217258
91126,217292
91136,217258
91146,217248
91157,217243
91167,217233
91177,217237
91186,217247
91197,217235
91207,217233
91217,217234
91227,217215
91237,217193
91247,217198
91286,217158
91296,217122
91306,217077
91317,217061
91328,217070
91336,217065
91347,217072
91356,217081
91366,217077
91377,217097
91386,217123
91397,217142
91407,217161
91416,217161
91428,217206
91436,217228
91446,217271
91456,217300
91467,217360
91476,217355
91486,217394
91536,217506
91613,217493
91627,217519
91671,217513
91677,217515
91686,217505
91697,217528
91706,217505
91717,217539
91726,217547
91737,217583
91746,217609
91757,217678
91766,217655
91777,217766
91786,217781
91797,217864
91806,217933
91817,217997
91826,218065
91837,218173
91846,218221
91857,218320
91899,218354
91901,217506
91906,218364
91916,218312
91926,218291
91937,218257
91946,218139
91956,218096
91966,218029
91976,218010
91987,218019
91996,217944
92006,217928
92017,217943
92026,217885
92036,217866
92047,217869
92056,217812
92066,217796
92077,217828
92086,217771
92096,217770
92107,217752
92116,217709
92126,217750
92136,217744
92147,217807
92156,217908
92166,218068
92176,218264
92222,217506
92226,219459
92312,219986
92317,220056
92328,220166
92378,220506
92387,220569
92397,220604
92408,220498
92417,220493
92428,220517
92437,220496
92447,220471
92458,220430
92467,220391
92478,220332
92487,220274
92498,220216
92507,220190
92518,220155
92527,220129
92538,220118
92547,220091
92558,220089
92567,220061
92578,220068
92587,220050
92598,220043
92607,220027
92618,220004
92659,219910
92667,219905
92677,219903
92688,220040
92697,220175
92707,220268
92718,220394
92727,220473
92738,220585
92747,220680
92758,220838
92767,221021
92778,221099
92787,221264
92798,221414
92807,221550
92818,221690
92827,221808
92838,221880
92847,221914
92858,221918
92867,221865
92878,221785
92887,221621
92928,221349
92979,221284
92987,221291
93031,221299
93033,220040
93040,221439
93049,221327
93057,221352
93068,221361
93119,221271
93127,221217
93138,221234
93148,221210
93157,221159
93168,221181
93177,221130
93188,221136
93197,221059
93208,221089
93217,221046
93228,221048
93237,221014
93248,221030
93257,220981
93268,220982
93278,220954
93287,220948
93298,220936
93307,220924
93318,220910
93328,220918
93338,220902
93348,220890
93358,220889
93368,220852
93378,220841
93388,220839
93398,220853
93408,220833
93418,220835
93462,220786
93468,220835
93478,220825
93488,220818
93498,220827
93508,220825
93518,220822
93528,220833
93538,220814
93548,220836
93592,220785
93598,220838
93649,220714
93659,220679
93702,220471
93708,220474
93718,220412
93728,220431
93738,220430
93748,220429
93758,220477
93768,220474
93778,220460
93788,220467
93798,220482
93808,220479
93818,220474
93869,220407
93878,220409
93888,220418
93898,220413
93908,220365
93918,220363
93928,220333
93938,220311
93948,220296
93958,220272
93968,220283
93978,220268
93988,220261
93998,220254
94008,220240
94018,220234
94028,220258
94038,220252
94048,220255
94058,220264
94068,220254
94078,220243
94088,220252
94098,220214
94108,220208
94118,220226
94128,220216
94138,220194
94148,220182
94159,220208
94168,220169
94179,220200
94188,220166
94198,220126
94209,220168
94218,220136
94260,220111
94300,220129
94310,220049
94319,220020
94364,220029
94370,219977
94459,219929
94470,219941
94511,219944
94519,219939
94529,219946
94539,219957
94549,219936
94559,219949
94569,219940
94579,219938
94589,219943
94599,219926
94609,219931
94619,219928
94664,219750
94670,219708
94679,219665
94689,219610
94699,219568
94709,219566
94719,219544
94729,219531
94739,219530
94749,219522
94759,219501
94769,219516
94779,219517
94789,219544
94799,219544
94809,219526
94819,219543
94829,219542
94839,219536
94849,219533
94859,219529
94869,219520
94879,219543
94889,219518
94899,219544
94909,219525
94919,219531
94929,219541
94939,219538
94949,219525
94959,219513
94969,219499
94979,219504
94989,219520
94999,219484
95009,219481
95054,219424
95060,219451
95111,219456
95161,219451
95203,219233
95209,219175
95220,219173
95229,219128
95240,219084
95249,219039
95259,218978
95270,218996
95279,218931
95289,218896
95300,218895
95310,218907
95320,218853
95329,218833
95339,218780
95349,218765
95360,218799
95370,218784
95401,218691
95410,218658
95420,218669
95430,218691
95439,218647
95450,218631
95459,218656
95469,218625
95480,218662
95490,218613
95500,218661
95509,218607
95520,218602
95530,218622
95539,218610
95550,218623
95559,218577
95569,218559
95580,218568
95620,218558
95629,218516
95639,218513
95651,218463
95661,218429
95671,218356
95680,218336
95690,218285
95701,218250
95711,218237
95721,218221
95730,218212
95741,218197
95751,218200
95760,218188
95771,218193
95781,218167
95791,218179
95800,218180
95811,218173
95821,218170
95829,218155
95872,218161
95881,218140
95890,218139
95900,218153
95911,218145
95920,218139
95931,218115
95941,218143
95951,218139
95960,218123
95971,218112
95981,218137
95991,218124
96000,218083
96011,218075
96021,218092
96031,218097
96040,218102
96051,218092
96061,218086
96071,218091
96080,218093
96123,218104
96130,218098
96170,218060
96182,218053
96222,218046
96232,218018
96282,217905
96290,217986
96301,218004
96311,217993
96321,217952
96331,217939
96341,217919
96351,217905
96360,217905
96371,217904
96381,217873
96391,217880
96400,217856
96411,217882
96421,217873
96431,217875
96440,217864
96451,217849
96461,217852
96471,217859
96480,217808
96490,217822
96500,217833
96510,217826
96521,217831
96531,217822
96541,217838
96551,217842
96560,217775
96570,217736
96580,217718
96590,217642
96600,217618
96610,217598
96651,217509
96662,217558
96670,217509
96680,217513
96690,217507
96700,217489
96710,217532
96720,217507
96730,217516
96783,217547
96792,217533
96833,217545
96843,217555
96883,217775
96891,217561
96901,217554
96912,217560
96922,217563
96932,217549
96942,217558
96951,217548
96962,217561
96972,217558
96982,217558
96991,217556
97002,217557
97013,217583
97052,217628
97062,217601
97072,217595
97081,217583
97092,217602
97102,217585
97111,217608
97122,217612
97132,217609
97142,217615
97151,217632
97162,217609
97172,217605
97182,217624
97191,217615
97202,217602
97212,217619
97222,217620
97231,217633
97242,217621
97252,217622
97262,217624
97271,217655
97282,217627
97292,217633
97302,217569
97312,217551
97321,217623
97332,217679
97342,217753
97351,217879
97362,218003
97372,218137
97382,218256
97391,218419
97435,219009
97441,219250
97486,219966
97491,220079
97533,220550
97535,217615
97542,221307
97553,221484
97604,221883
97614,221946
97621,222040
97631,222174
97642,222333
97652,222494
97662,222693
97671,222894
97682,223115
97692,223312
97702,223500
97712,223665
97721,223828
97732,223976
97742,224117
97751,224223
97762,224387
97772,224498
97782,224597
97791,224663
97802,224772
97844,224809
97847,219966
97853,224922
97862,224912
97872,224964
97882,224936
97892,224931
97902,224945
97911,224945
97921,224949
97932,225013
97942,225012
97951,225004
97961,225060
97972,225109
97982,225152
97991,225197
98002,225225
98012,225250
98022,225285
98033,225307
98042,225288
98052,225300
98062,225329
98073,225340
98083,225388
98092,225414
98102,225460
98112,225491
98165,225642
98173,225655
98212,225755
98254,225836
98263,225866
98345,226249
98393,226573
98402,226549
98452,226724
98462,226703
98473,226678
98483,226613
98493,226544
98502,226427
98513,226280
98522,226163
98532,226004
98542,225965
98552,225867
98562,225819
98573,225769
98582,225800
98593,225823
98603,225848
98643,225841
98645,226070
98654,225914
98664,225892
98672,225892
98682,225877
98692,225868
98702,225879
98713,225903
98723,225881
98733,225818
98742,225764
98753,225740
98763,225707
98773,225713
98783,225756
98793,225696
98803,225757
98813,225754
98823,225740
98832,225546
98842,225503
98853,225571
98863,225542
98872,225482
98883,225456
98893,225418
98903,225393
98913,225312
98922,225259
98933,225232
98943,225200
98984,225892
99065,225988
99074,226006
99115,226418
99122,226401
99133,226502
99142,226655
99152,226942
99163,227062
99173,227193
99183,227322
99192,227311
99203,227353
99213,227442
99223,227415
99232,227351
99243,227415
99253,227345
99263,227403
99274,227386
99284,227380
99294,227408
99304,227434
99313,227469
99323,227468
99333,227503
99343,227562
99353,227663
99363,227673
99373,227663
99383,227672
99394,227654
99404,227639
99414,227628
99457,226502
99464,227663
99473,227645
99483,227652
99493,227676
99503,227730
99514,227757
99524,227789
99533,227811
99543,227803
99554,227759
99564,227727
99574,227719
99584,227665
99593,227700
99603,227569
99613,227341
99664,227200
99708,227672
99713,226889
99724,226906
99735,226876
99742,226871
99754,226841
99764,226820
99774,226803
99784,226769
99794,226762
99804,226728
99813,226671
99823,226648
99833,226619
99843,226595
99853,226663
99863,226714
99873,226721
99883,226656
99923,226521
99933,226510
99943,226521
99954,226534
99965,226490
99973,226451
99983,226426
99993,226475
100003,226451
100014,226433
100024,226454
100034,226422
100044,226454
100054,226425
100064,226379
100074,226351
100083,226290
100094,226311
100144,226245
100185,226188
100194,226145
100203,226138
100213,226102
100223,226059
100234,226061
100244,226001
100253,225917
100263,225885
100274,225891
100284,225881
100294,225859
100304,225839
100313,225801
100323,225750
100333,225722
100343,225653
100389,225614
100393,225605
100403,225593
100414,225624
100424,225606
100433,225625
100443,225670
100453,225672
100463,225708
100474,225720
100484,225721
100494,225713
100504,225733
100514,225732
100524,225743
100534,225733
100544,225722
100555,225733
100564,225695
100574,225694
100584,225644
100595,225640
100604,225611
100656,225583
100663,225594
100674,225587
100684,225599
100735,225575
100786,225522
100794,225540
100836,225517
100845,225485
100854,225511
100864,225515
100875,225490
100884,225466
100894,225480
100904,225484
100914,225498
100925,225465
100934,225458
100944,225479
100954,225466
100964,225497
100975,225546
100984,225524
100995,225526
101004,225522
101047,225537
101050,225573
101056,225503
101064,225497
101074,225475
101084,225458
101094,225416
101104,225369
101115,225359
101125,225319
101135,225276
101145,225272
101154,225270
101164,225242
101174,225252
101184,225264
101195,225319
101205,225336
101215,225321
101225,225313
101235,225306
101245,225309
101255,225301
101265,225282
101275,225267
101285,225281
101295,225286
101305,225285
101314,225261
101325,225293
101335,225310
101345,225329
101387,225387
101430,225330
101440,225307
101445,225324
101488,225324
101495,225331
101506,225376
101552,225293
101555,225335
101565,225397
101574,225307
101584,225337
101595,225307
101605,225310
101615,225323
101625,225324
101635,225318
101645,225325
101655,225332
101665,225356
101675,225374
101685,225376
101695,225399
101705,225404
101715,225416
101725,225449
101735,225427
101745,225428
101755,225430
101765,225442
101775,225461
101785,225485
101795,225481
101805,225497
101856,225476
101867,225464
101876,225439
101885,225406
101895,225390
101905,225337
101915,225305
101925,225293
101935,225261
101945,225238
101955,225262
101965,225266
101975,225307
101985,225313
101995,225340
102005,225349
102015,225342
102025,225335
102035,225348
102045,225361
102055,225362
102098,225377
102100,225430
102108,225360
102115,225379
102155,225398
102166,225406
102177,225416
102215,225383
102258,225385
102265,225365
102276,225400
102351,225313
102356,225506
102366,225529
102376,225528
102385,225546
102395,225531
102405,225556
102415,225553
102425,225540
102435,225551
102445,225537
102455,225556
102465,225541
102475,225536
102485,225517
102495,225522
102505,225511
102516,225558
102525,225513
102535,225484
102545,225487
102555,225490
102565,225478
102575,225499
102585,225509
102595,225508
102605,225496
102657,225503
102667,225538
102676,225509
102685,225474
102695,225435
102705,225396
102715,225384
102725,225339
102735,225346
102745,225313
102755,225342
102765,225337
102775,225322
102785,225312
102795,225337
102805,225343
102815,225353
102825,225369
102835,225361
102845,225365
102855,225371
102865,225353
102909,225313
102917,225316
102960,225295
102962,225554
102967,225373
103016,225405
103027,225403
103071,225439
103076,225438
103086,225444
103097,225441
103106,225450
103116,225478
103126,225464
103136,225480
103146,225470
103157,225454
103166,225463
103176,225488
103186,225483
103197,225463
103206,225489
103216,225501
103226,225504
103237,225512
103246,225525
103256,225514
103266,225541
103277,225550
103286,225531
103296,225559
103306,225558
103316,225554
103327,225560
103336,225547
103346,225574
103357,225571
103366,225576
103376,225606
103386,225612
103397,225620
103406,225607
103451,225638
103453,225618
103457,225656
103467,225661
103477,225686
103486,225675
103496,225682
103506,225685
103551,225693
103553,225483
103557,225746
103568,225707
103617,225663
103669,225549
103676,225548
103686,225526
103696,225506
103706,225516
103716,225536
103726,225540
103736,225547
103746,225535
103756,225561
103766,225536
103776,225538
103786,225526
103797,225581
103806,225551
103851,225553
103853,225675
103858,225572
103867,225603
103877,225592
103886,225564
103896,225548
103906,225543
103917,225587
103926,225543
103936,225548
103946,225539
103957,225573
103966,225547
103976,225563
103986,225575
103997,225596
104006,225615
104016,225633
104026,225641
104037,225657
104047,225670
104057,225690
104067,225686
104076,225689
104086,225692
104096,225704
104106,225715
104116,225685
104127,225736
104137,225731
104147,225722
104158,225749
104167,225753
104213,225725
104217,225721
104268,225619
104277,225580
104287,225555
104298,225542
104308,225550
104316,225501
104328,225544
104338,225516
104347,225529
104357,225505
104367,225502
104377,225487
104387,225532
104398,225493
104407,225529
104417,225473
104448,225482
104457,225478
104468,225483
104476,225491
104486,225540
104497,225505
104507,225522
104518,225512
104528,225500
104537,225474
104548,225463
104558,225484
104568,225451
104578,225485
104587,225467
104597,225480
104607,225498
104618,225480
104629,225525
104677,225577
104720,225553
104734,225548
104770,225567
104772,225482
104779,225618
104788,225624
104797,225608
104807,225642
104817,225628
104827,225606
104837,225645
104847,225638
104857,225632
104867,225654
104877,225637
104887,225655
104897,225679
104907,225690
104917,225671
104927,225682
104937,225679
104947,225705
104958,225716
104967,225703
104977,225685
104987,225677
104998,225744
105007,225725
105050,225754
105058,225766
105068,225756
105078,225772
105087,225733
105097,225722
105107,225710
105118,225739
105127,225708
105137,225698
105147,225707
105158,225742
105167,225702
105177,225716
105187,225709
105198,225734
105207,225720
105217,225743
105227,225773
105238,225767
105248,225757
105258,225759
105268,225761
105277,225778
105287,225780
105330,225790
105343,225774
105348,225788
105389,225774
105398,225758
105436,225708
105439,225722
105450,225566
105458,225508
105501,225513
105508,225563
105519,225509
105529,225543
105538,225543
105548,225561
105558,225569
105568,225555
105578,225565
105588,225549
105598,225547
105608,225537
105618,225541
105628,225546
105638,225549
105648,225550
105658,225580
105668,225572
105678,225569
105688,225599
105698,225591
105708,225619
105718,225612
105728,225615
105738,225614
105748,225610
105759,225608
105768,225613
105778,225639
105788,225646
105798,225665
105808,225667
105850,225688
105859,225689
105869,225688
105878,225696
105888,225722
105898,225728
105908,225731
105919,225718
105928,225728
105938,225717
105948,225708
105958,225689
105968,225653
105978,225643
105988,225591
105998,225571
106008,225531
106050,225533
106052,225619
106060,225544
106070,225583
106078,225550
106121,225581
106128,225580
106178,225561
106220,225561
106229,225567
106271,225602
106274,225731
106320,225630
106329,225647
106338,225622
106348,225623
106358,225630
106368,225634
106378,225624
106388,225630
106398,225640
106408,225651
106420,225649
106429,225649
106439,225666
106450,225671
106459,225682
106469,225687
106479,225680
106489,225701
106500,225704
106509,225711
106520,225715
106529,225696
106540,225704
106549,225715
106559,225723
106570,225715
106579,225730
106589,225730
106599,225738
106610,225740
106661,225760
106670,225759
106679,225774
106690,225752
106699,225781
106709,225771
106719,225765
106730,225802
106739,225792
106749,225805
106759,225788
106770,225827
106779,225786
106789,225810
106799,225816
106810,225817
106819,225808
106870,225809
106880,225824
106922,225851
106969,225870
107010,225837
107019,225877
107061,225885
107070,225904
107080,225899
107089,225897
107099,225874
107109,225873
107119,225823
107129,225803
107139,225753
107149,225712
107159,225672
107169,225666
107179,225591
107189,225569
107199,225569
107209,225560
107219,225552
107229,225568
107239,225575
107249,225587
107259,225599
107269,225605
107279,225602
107289,225612
107299,225611
107309,225601
107319,225584
107329,225583
107339,225598
107349,225574
107359,225591
107369,225576
107379,225597
107389,225606
107399,225615
107409,225623
107463,225665
107469,225600
107479,225577
107489,225572
107499,225582
107509,225560
107551,225630
107602,225639
107638,225645
107650,225638
107660,225647
107671,225653
107680,225670
107691,225669
107700,225637
107711,225669
107721,225656
107730,225662
107741,225678
107750,225688
107760,225708
107771,225714
107780,225699
107791,225714
107801,225718
107810,225699
107861,225724
107870,225750
107880,225757
107890,225762
107901,225754
107910,225766
107920,225769
107931,225778
107940,225787
107951,225788
107960,225789
107971,225800
107980,225810
107991,225804
108000,225799
108011,225809
108020,225815
108031,225828
108040,225843
108051,225875
108060,225897
108071,225874
108080,225875
108091,225863
108100,225898
108110,225879
108121,225904
108130,225910
108141,225896
108150,225869
108191,225747
108235,225668
108274,225710
108284,225798
108292,225823
108301,225836
108343,225816
108351,225825
108360,225804
108370,225819
108380,225814
108390,225805
108401,225845
108411,225872
108421,225899
108430,225843
108440,225846
108450,225851
108460,225835
108471,225857
108480,225829
108490,225836
108500,225831
108511,225893
108541,225947
108551,225926
108560,225894
108570,225897
108581,225891
108591,225959
108601,225950
108611,225965
108620,225917
108630,225890
108641,225934
108651,225986
108661,225965
108671,225935
108681,225966
108691,225987
108700,225985
108710,225974
108720,225981
108762,226061
108772,226057
108781,226026
108792,226064
108801,226058
108811,226072
108822,226097
108831,226088
108842,226082
108851,226092
108861,226107
108871,226094
108882,226111
108891,226092
108901,226110
108911,226127
108922,226107
108932,226129
108941,226127
108951,226127
108961,226134
108972,226143
108981,226143
108991,226151
109001,226161
109012,226168
109062,226211
109072,226228
109082,226237
109091,226217
109102,226235
109111,226233
109121,226220
109132,226235
109141,226227
109151,226246
109161,226231
109172,226233
109181,226262
109191,226199
109201,226221
109212,226159
109221,226152
109266,226127
109313,226071
109324,226069
109332,226055
109374,226084
109382,226082
109392,226025
109401,226063
109412,226076
109421,226048
109432,226055
109473,226050
109482,226024
109491,226029
109502,226055
109511,226034
109521,226046
109532,226069
109541,226070
109551,226066
109561,226071
109572,226105
109581,226106
109591,226101
109601,226120
109612,226113
109621,226106
109631,226090
109642,226133
109651,226097
109662,226142
109671,226102
109681,226092
109692,226120
109701,226091
109712,226141
109722,226136
109731,226095
109742,226123
109751,226101
109761,226078
109771,226056
109782,226072
109791,226021
109801,225982
109812,226002
109862,225933
109874,225981
109882,225957
109920,225964
109933,225983
109984,225972
109993,225916
110033,226040
110074,226011
110084,226027
110132,226060
110142,226039
110152,226030
110163,226037
110172,226043
110182,226057
110193,226049
110203,226051
110212,226068
110222,226061
110273,226067
110283,226047
110293,226080
110302,226040
110312,226067
110322,226058
110332,226064
110342,226064
110352,226069
110363,226066
110372,226105
110382,226113
110393,226090
110403,226110
110412,226141
110422,226125
110433,226130
110443,226149
110452,226160
110462,226138
110472,226171
110483,226182
110492,226204
110502,226194
110513,226215
110522,226222
110532,226218
110542,226199
110553,226249
110563,226248
110572,226247
110582,226220
110593,226267
110603,226253
110612,226261
110657,226281
110662,226277
110715,226329
110724,226283
110765,226322
110813,226356
110822,226363
110832,226368
110843,226426
110852,226387
110862,226406
110872,226410
110882,226402
110893,226453
110902,226408
110913,226438
110922,226408
110933,226435
110942,226393
110953,226406
110962,226347
110973,226337
110982,226268
110993,226275
111002,226259
111013,226244
111057,226192
111064,226270
111073,226230
111082,226266
111093,226281
111104,226286
111113,226292
111123,226279
111134,226292
111143,226293
111153,226273
111163,226272
111173,226276
111183,226269
111193,226306
111204,226289
111213,226318
111223,226315
111233,226316
111244,226298
111254,226326
111264,226316
111273,226313
111284,226320
111293,226332
111303,226323
111313,226342
111354,226365
111364,226368
111408,226354
111456,226376
111503,226396
111515,226406
111524,226399
111533,226368
111543,226412
111553,226395
111563,226434
111573,226412
111584,226447
111593,226424
111604,226455
111613,226478
111623,226440
111633,226444
111644,226482
111653,226464
111663,226457
111673,226488
111684,226495
111693,226514
111703,226471
111713,226465
111723,226479
111733,226491
111743,226480
111753,226489
111764,226504
111773,226513
111783,226488
111793,226496
111804,226526
111813,226539
111864,226537
111874,226532
111883,226527
111894,226550
111903,226544
111913,226546
111924,226553
111933,226545
111943,226523
111953,226545
111964,226569
111973,226519
111983,226466
111993,226463
112004,226444
112013,226378
112055,226320
112064,226260
112115,226295
112125,226311
112166,226258
112174,226222
112183,226229
112194,226223
112204,226232
112213,226219
112224,226208
112233,226207
112244,226220
112255,226226
112298,226232
112307,226466
112315,226231
112323,226229
112334,226251
112345,226240
112354,226259
112364,226256
112374,226256
112385,226259
112394,226240
112404,226262
112415,226260
112424,226243
112434,226258
112445,226243
112454,226240
112464,226246
112474,226256
112484,226249
112495,226275
112504,226281
112514,226276
112524,226287
112534,226301
112544,226283
112554,226315
112564,226291
112574,226316
112585,226303
112594,226305
112604,226315
112615,226306
112667,226328
112676,226347
112726,226338
112736,226324
112781,226285
112786,226311
112794,226336
112804,226330
112815,226318
112825,226317
112835,226331
112845,226347
112854,226338
112865,226334
112875,226363
112885,226374
112894,226380
112905,226395
112915,226378
112925,226352
112935,226370
112975,226390
112985,226371
112995,226377
113004,226326
113014,226279
113026,226261
113034,226211
113044,226202
113054,226208
113064,226169
113075,226176
113084,226141
113096,226171
113104,226131
113114,226144
113124,226176
113169,226180
113175,226144
113227,226177
113235,226150
113245,226147
113255,226169
113265,226192
113274,226136
113284,226142
113294,226146
113305,226192
113314,226165
113324,226175
113334,226155
113344,226185
113355,226174
113365,226201
113374,226199
113384,226209
113395,226189
113405,226209
113416,226227
113425,226254
113436,226266
113445,226239
113490,226193
113496,226265
113505,226253
113515,226253
113526,226247
113535,226213
113545,226220
113555,226186
113565,226159
113575,226142
113585,226139
113595,226125
113605,226109
113615,226111
113626,226100
113635,226107
113645,226125
113656,226111
113665,226134
113676,226163
113685,226166
113696,226155
113705,226169
113716,226173
113725,226149
113735,226148
113746,226151
113786,226230
113797,226197
113806,226188
113846,226174
113858,226131
113937,226183
113945,226209
113996,226207
114007,226231
114049,226252
114056,226288
114065,226285
114076,226298
114085,226262
114095,226285
114105,226299
114115,226303
114126,226315
114135,226276
114146,226307
114155,226288
114165,226283
114176,226331
114185,226310
114196,226343
114205,226310
114216,226371
114259,226302
114267,226354
114277,226335
114285,226350
114295,226364
114305,226377
114315,226354
114326,226410
114335,226356
114345,226387
114355,226349
114365,226363
114375,226362
114386,226398
114395,226382
114405,226367
114416,226415
114425,226385
114436,226421
114445,226417
114456,226412
114465,226407
114476,226443
114485,226420
114496,226449
114505,226459
114516,226451
114526,226455
114535,226464
114546,226470
114588,226479
114597,226482
114607,226497
114677,226559
114680,226356
114686,226454
114698,226378
114738,226266
114746,226253
114788,226218
114796,226231
114806,226235
114817,226222
114826,226251
114836,226243
114846,226232
114856,226225
114867,226211
114876,226211
114886,226225
114896,226217
114907,226200
114916,226197
114926,226214
114936,226203
114946,226207
114957,226238
114966,226230
114977,226210
114986,226215
114996,226195
115007,226205
115016,226207
115061,226199
115066,226228
115076,226231
115086,226223
115096,226241
115106,226237
115116,226225
115127,226247
115136,226269
115146,226229
115157,226263
115166,226268
115176,226254
115186,226236
115197,226269
115206,226267
115217,226255
115226,226273
115236,226269
115246,226266
115257,226296
115266,226303
115276,226284
115286,226284
115330,226295
115367,226290
115369,226242
115380,226347
115417,226269
115427,226277
115467,226289
115477,226258
115489,226304
115497,226249
115506,226272
115517,226299
115526,226251
115536,226260
115546,226262
115557,226292
115566,226246
115577,226283
115586,226232
115597,226284
115606,226251
115617,226298
115626,226252
115636,226279
115647,226297
115656,226280
115666,226296
115677,226277
115686,226241
115697,226277
115706,226259
115717,226213
115727,226213
115737,226191
115746,226155
115757,226090
115767,226078
115778,226053
115787,226043
115797,226030
115808,226023
115817,226023
115859,226063
115867,226013
115877,226027
115888,226005
115897,225995
115907,225999
115918,225991
115927,226000
115968,226000
116009,226016
116018,226003
116064,226012
116069,226023
116077,225996
116088,225992
116097,225970
116107,225998
116118,226013
116128,226021
116137,226020
116147,226015
116158,226003
116167,226021
116178,226010
116187,226033
116197,226033
116208,226041
116217,226038
116258,226076
116267,226080
116277,226095
116288,226093
116297,226128
116307,226106
116318,226118
116327,226115
116337,226106
116348,226124
116357,226133
116367,226113
116378,226126
116387,226144
116397,226124
116408,226165
116417,226143
116427,226151
116438,226162
116447,226155
116457,226148
116468,226150
116477,226142
116487,226116
116498,226189
116507,226167
116518,226202
116527,226172
116537,226176
116548,226218
116557,226211
116567,226222
116618,226173
116660,226175
116669,226203
116712,226099
116718,226048
116731,226036
116780,225948
116788,225966
116797,225931
116807,225950
116818,225991
116827,225954
116837,225956
116848,225980
116857,225965
116867,225972
116878,225965
116887,225938
116898,225968
116908,225972
116917,225958
116928,225971
116938,225975
116949,225989
116958,225995
116969,225991
116978,225997
116989,225995
116998,226006
117009,225990
117018,225997
117060,225992
117068,225996
117079,225997
117089,226016
117098,226013
117108,226003
117118,226021
117129,226014
117138,226045
117148,226039
117158,226027
117169,226029
117178,226010
117188,225989
117199,225996
117208,226007
117218,226004
117229,225983
117238,226005
117248,225970
117258,225986
117269,225945
117278,225905
117288,225876
117330,225808
117338,225800
117349,225776
117359,225787
117369,225797
117380,225805
117388,225822
117398,225835
117408,225822
117418,225818
117428,225825
117439,225850
117450,225821
117459,225815
117468,225840
117498,225858
117508,225844
117518,225873
117528,225872
117540,225852
117548,225878
117559,225882
117568,225856
117579,225868
117588,225866
117599,225860
117608,225851
117619,225862
117629,225879
117638,225844
117649,225842
117658,225837
117699,225850
117709,225829
117760,225854
117771,225874
117811,225796
117820,225822
117869,225817
117879,225795
117930,225959
117980,225946
117989,225913
117998,225905
118008,225914
118019,225915
118028,225895
118038,225907
118048,225901
118059,225911
118068,225913
118079,225891
118088,225894
118099,225899
118109,225881
118119,225911
118130,225879
118139,225891
118149,225881
118160,225885
118169,225881
118180,225877
118189,225876
118200,225870
118209,225865
118220,225872
118229,225859
118279,225765
118289,225836
118300,225870
118309,225856
118320,225861
118329,225864
118340,225871
118349,225852
118360,225851
118369,225858
118380,225860
118389,225862
118399,225864
118410,225851
118419,225858
118429,225835
118480,225678
118523,225628
118525,225520
118531,225553
118579,225495
118589,225448
118600,225448
118609,225441
118620,225417
118629,225409
118680,225370
118690,225403
118699,225374
118709,225405
118719,225424
118729,225436
118740,225448
118749,225412
118760,225432
118769,225443
118780,225456
118789,225435
118800,225444
118809,225432
118820,225449
118829,225431
118840,225476
118849,225437
118860,225458
118869,225457
118880,225468
118889,225448
118900,225476
118909,225456
118919,225450
118930,225471
118939,225445
118949,225440
118960,225460
118969,225418
118979,225403
118989,225387
118999,225390
119010,225414
119050,225372
119060,225396
119071,225402
119080,225353
119120,225310
119129,225313
119173,225437
119212,225396
119220,225428
119230,225438
119240,225441
119249,225435
119260,225479
119269,225458
119280,225462
119289,225479
119300,225481
119311,225490
119320,225512
119331,225521
119340,225516
119351,225542
119360,225537
119371,225548
119380,225547
119391,225554
119400,225529
119411,225543
119453,225514
119461,225538
119471,225533
119510,225412
119520,225384
119531,225343
119540,225332
119551,225303
119560,225294
119571,225307
119580,225318
119591,225317
119600,225342
119611,225299
119620,225323
119631,225342
119640,225315
119651,225312
119660,225307
119671,225311
119680,225284
119691,225291
119700,225283
119710,225285
119720,225324
119773,225280
119780,225353
119820,225345
119871,225365
119914,225318
119922,225367
119930,225383
119941,225400
119950,225395
119961,225421
119970,225407
119981,225400
119990,225380
120001,225404
120010,225382
120021,225422
120030,225376
120040,225395
120051,225439
120060,225424
120071,225463
120080,225442
120091,225476
120100,225479
120111,225509
120120,225461
120131,225488
120140,225480
120151,225489
120160,225467
120171,225499
120180,225479
120191,225518
120200,225482
120211,225528
120253,225517
120261,225579
120270,225517
120281,225562
120290,225541
120300,225515
120311,225565
120320,225552
120331,225544
120340,225549
120351,225549
120360,225516
120371,225563
120380,225561
120391,225598
120400,225558
120411,225574
120420,225559
120472,225615
120482,225599
120522,225485
120531,225466
120541,225393
120583,225338
120592,225310
120601,225326
120611,225336
120622,225314
120632,225333
120642,225333
120652,225343
120662,225351
120671,225338
120682,225328
120691,225317
120701,225318
120711,225308
120721,225308
120731,225320
120763,225330
120772,225351
120782,225353
120792,225358
120802,225347
120811,225346
120822,225355
120832,225371
120842,225350
120851,225378
120861,225346
120871,225368
120881,225341
120892,225358
120902,225337
120911,225364
120921,225363
120932,225354
120971,225334
120981,225322
120991,225346
121002,225329
121011,225345
121021,225355
121031,225350
121042,225338
121051,225359
121062,225366
121071,225375
121081,225355
121092,225391
121101,225385
121111,225373
121163,225338
121171,225381
121182,225402
121191,225416
121202,225413
121211,225382
121222,225433
121231,225421
121242,225425
121251,225411
121262,225421
121271,225422
121282,225417
121291,225408
121302,225433
121311,225395
121321,225406
121332,225436
121341,225435
121351,225419
121362,225459
121371,225460
121382,225487
121391,225468
121402,225490
121411,225474
121485,225496
121488,225371
121493,225505
121501,225489
121513,225502
121564,225403
121611,225228
121654,225246
121662,225215
121703,225459
121712,225258
121722,225234
121732,225253
121742,225255
121752,225242
121762,225251
121772,225253
121782,225262
121792,225261
121802,225287
121812,225308
121852,225303
121862,225288
121872,225288
121882,225301
121892,225293
121902,225295
121912,225286
121922,225309
121932,225301
121942,225297
121952,225307
121962,225310
121972,225299
121982,225322
121992,225348
122002,225341
122012,225350
122022,225333
122032,225337
122042,225363
122052,225365
122062,225355
122072,225368
122082,225367
122092,225360
122102,225365
122112,225357
122122,225370
122132,225360
122142,225350
122152,225368
122162,225355
122172,225361
122182,225372
122192,225390
122202,225391
122247,225399
122253,225407
122334,225443
122338,225348
122344,225479
122384,225464
122392,225495
122402,225465
122412,225485
122422,225501
122432,225492
122442,225482
122452,225507
122462,225512
122472,225498
122482,225517
122492,225506
122502,225498
122512,225481
122522,225487
122532,225468
122542,225454
122552,225431
122562,225385
122572,225328
122582,225337
122592,225297
122602,225272
122612,225249
122654,225256
122662,225257
122672,225269
122682,225287
122692,225291
122702,225293
122712,225278
122722,225325
122732,225315
122742,225313
122752,225322
122762,225327
122772,225331
122782,225334
122792,225359
122802,225369
122812,225387
122822,225383
122832,225427
122842,225416
122852,225419
122862,225413
122873,225426
122882,225410
122924,225398
122933,225404
122942,225401
122983,225456
123025,225402
123106,225388
123115,225290
123123,225250
123133,225217
123143,225226
123153,225196
123163,225190
123173,225180
123183,225182
123193,225199
123203,225191
123213,225202
123223,225190
123233,225203
123243,225195
123253,225190
123263,225176
123273,225171
123283,225176
123293,225165
123303,225177
123313,225192
123323,225171
123333,225172
123343,225180
123353,225179
123363,225180
123373,225197
123383,225185
123393,225201
123403,225174
123413,225176
123455,225153
123463,225196
123473,225197
123483,225198
123493,225196
123503,225209
123513,225202
123523,225201
123533,225198
123543,225202
123553,225196
123563,225194
123573,225181
123583,225206
123593,225210
123603,225225
123644,225210
123646,225177
123654,225219
123696,225215
123735,225205
123737,225197
123745,225237
123754,225222
123763,225221
123773,225229
123783,225227
123793,225215
123803,225195
123813,225198
123823,225197
123833,225210
123843,225214
123893,225191
123903,225181
123913,225193
123923,225185
123933,225186
123943,225154
123953,225177
123963,225166
123973,225170
123983,225154
123993,225185
124003,225181
124013,225186
124023,225171
124034,225190
124043,225190
124053,225186
124065,225192
124074,225205
124085,225187
124095,225209
124105,225195
124114,225189
124125,225208
124135,225191
124145,225207
124154,225188
124165,225223
124175,225234
124185,225233
124194,225209
124205,225219
124214,225239
124254,225143
124297,225042
124345,224833
124356,224845
124399,224882
124404,224854
124416,224884
124425,224881
124435,224838
124445,224832
124455,224852
124465,224846
124474,224838
124485,224834
124495,224827
124505,224848
124515,224856
124524,224877
124535,224878
124545,224880
124554,224901
124565,224893
124574,224881
124585,224880
124594,224891
124605,224894
124643,224887
124646,224958
124655,224888
124665,224885
124675,224909
124685,224910
124695,224926
124705,224904
124714,224911
124725,224930
124735,224927
124745,224904
124754,224914
124765,224939
124775,224915
124785,224917
124794,224893
124805,224944
124815,224942
124825,224951
124834,224937
124845,224970
124855,224964
124865,224979
124874,224959
124885,224982
124895,224976
124905,224975
124915,224977
124957,224997
124965,224973
124975,224956
124985,225002
124994,224970
125005,225028
125016,225020
125025,225012
125035,225010
125045,225030
125055,225020
125065,225034
125074,224990
125084,224991
125096,225042
125104,225000
125114,224996
125124,224993
125155,224996
125164,224999
125175,225074
125185,225079
125194,225065
125205,225049
125214,225081
125224,225064
125234,225072
125245,225047
125254,225055
125264,225053
125275,225063
125285,225055
125295,225045
125306,224992
125316,224943
125324,224934
125335,224881
125417,224756
125419,224990
125427,224778
125436,224802
125479,224763
125486,224779
125526,224792
125536,224781
125575,224795
125616,224845
125625,224794
125635,224790
125646,224803
125656,224784
125665,224779
125675,224805
125686,224801
125696,224806
125706,224804
125716,224787
125726,224822
125736,224844
125746,224824
125755,224842
125766,224838
125776,224830
125786,224849
125795,224846
125806,224853
125816,224848
125867,224838
125875,224882
125886,224914
125896,224919
125906,224905
125915,224901
125926,224920
125936,224907
125946,224919
125955,224920
125966,224941
125976,224927
125986,224935
125995,224920
126006,224943
126016,224934
126026,224930
126035,224931
126046,224956
126056,224935
126066,224958
126075,224922
126086,224961
126096,224951
126106,224963
126116,224958
126157,224990
126165,224961
126207,224926
126247,224935
126296,224837
126305,224780
126315,224740
126325,224686
126336,224654
126346,224628
126355,224608
126366,224593
126376,224570
126386,224584
126395,224573
126406,224567
126416,224586
126426,224578
126437,224576
126447,224571
126457,224567
126467,224566
126476,224544
126486,224544
126496,224527
126506,224527
126516,224537
126526,224509
126536,224546
126546,224560
126557,224572
126567,224558
126577,224549
126587,224573
126596,224596
126606,224573
126656,224553
126667,224543
126676,224557
126686,224540
126696,224546
126706,224568
126717,224542
126727,224528
126737,224529
126747,224520
126799,224530
126838,224538
126847,224473
126889,224417
126898,224316
126907,224314
126917,224287
126926,224308
126936,224315
126946,224303
126956,224305
126966,224288
126976,224260
126986,224263
126997,224302
127007,224280
127046,224277
127049,224568
127058,224262
127066,224260
127076,224237
127086,224238
127096,224225
127106,224230
127117,224258
127127,224259
127137,224243
127147,224241
127156,224240
127166,224211
127176,224197
127186,224208
127197,224236
127207,224243
127217,224256
127227,224257
127236,224245
127247,224272
127257,224278
127267,224262
127276,224238
127287,224275
127297,224268
127307,224258
127317,224255
127326,224219
127337,224259
127347,224255
127356,224217
127367,224265
127377,224275
127387,224261
127396,224234
127436,224275
127449,224254
127497,224210
127550,224293
127558,224325
127597,224313
127608,224318
127618,224307
127628,224315
127637,224302
127647,224319
127657,224314
127667,224327
127678,224324
127688,224325
127698,224326
127708,224319
127718,224344
127727,224324
127737,224335
127747,224338
127758,224333
127768,224330
127778,224330
127787,224336
127798,224367
127808,224346
127850,224354
127853,224271
127859,224398
127868,224396
127877,224399
127887,224389
127897,224394
127907,224394
127918,224374
127927,224366
127937,224384
127947,224349
127958,224330
127967,224269
127977,224255
127987,224201
127998,224137
128008,224107
128018,224071
128028,224048
128037,224045
128047,224066
128057,224059
128067,224062
128078,224058
128088,224036
128098,224070
128108,224061
128160,224090
128200,224058
128202,224398
128207,224090
128218,224093
128227,224089
128269,224086
128277,224092
128289,224082
128332,224061
128338,224066
128347,224077
128358,224100
128368,224137
128378,224116
128387,224114
128398,224114
128408,224121
128418,224123
128428,224122
128437,224079
128447,224075
128457,224075
128467,224096
128478,224148
128488,224168
128498,224156
128508,224166
128518,224182
128527,224148
128537,224128
128547,224140
128558,224196
128568,224198
128578,224190
128588,224194
128597,224155
128607,224138
128618,224179
128659,224201
128668,224234
128677,224209
128687,224185
128697,224219
128707,224216
128718,224242
128727,224233
128737,224237
128747,224233
128758,224237
128768,224254
128778,224251
128788,224266
128797,224268
128807,224291
128817,224288
128828,224278
128872,224260
128874,224148
128878,224253
128888,224292
128897,224244
128940,224131
128950,224049
129031,223954
129033,224234
129039,223959
129050,223987
129091,223973
129093,224216
129138,223901
129148,223893
129158,223888
129168,223908
129178,223896
129188,223902
129198,223881
129207,223907
129220,223910
129228,223877
129238,223873
129249,223884
129259,223853
129268,223866
129278,223864
129288,223866
129329,223890
129338,223922
129348,223898
129359,223881
129369,223848
129378,223893
129389,223898
129398,223932
129408,223917
129419,223931
129428,223926
129438,223903
129449,223902
129458,223871
129468,223842
129478,223822
129489,223784
129499,223795
129509,223762
129518,223725
129528,223712
129538,223704
129548,223690
129559,223752
129569,223745
129579,223753
129589,223730
129598,223722
129641,223700
129643,223859
129650,223707
129658,223667
129669,223718
129678,223707
129688,223677
129698,223676
129708,223683
129718,223675
129728,223690
129738,223661
129748,223661
129758,223680
129768,223648
129778,223641
129788,223631
129799,223670
129809,223686
129819,223677
129829,223665
129838,223641
129848,223620
129900,223698
129909,223674
129918,223660
129928,223656
129938,223681
129948,223658
129959,223642
129969,223677
129979,223683
129989,223677
130000,223677
130042,223657
130049,223689
130060,223693
130109,223684
130156,223726
130160,223735
130169,223738
130179,223749
130189,223744
130200,223742
130209,223749
130219,223764
130229,223764
130240,223753
130249,223763
130291,223745
130299,223768
130309,223756
130319,223754
130329,223768
130339,223781
130349,223794
130360,223797
130369,223791
130379,223817
130389,223811
130400,223799
130409,223797
130419,223816
130429,223839
130440,223810
130449,223802
130459,223847
130469,223833
130480,223863
130489,223865
130499,223884
130509,223908
130519,223900
130530,223924
130539,223921
130549,223913
130559,223921
130569,223888
130579,223890
130589,223863
130600,223861
130609,223788
130660,223608
130711,223618
130721,223644
130729,223638
130770,223624
130779,223632
130823,223884
130830,223664
130839,223660
130849,223660
130859,223665
130869,223661
130880,223711
130890,223720
130899,223668
130909,223659
130919,223660
130929,223669
130939,223650
130949,223656
130960,223715
130969,223691
130979,223707
130989,223711
131000,223736
131009,223711
131020,223738
131060,223827
131070,223811
131080,223784
131089,223784
131099,223791
131109,223807
131120,223809
131130,223806
131140,223827
131150,223828
131159,223849
131169,223849
131179,223849
131189,223862
131200,223853
131210,223869
131220,223864
131230,223875
131241,223874
131250,223882
131260,223873
131270,223886
131281,223909
131290,223909
131300,223903
131310,223890
131320,223915
131373,223935
131383,223960
131421,224003
131462,223998
131502,223999
131511,224025
131563,223952
131570,223887
131580,223900
131590,223829
131600,223801
131610,223783
131620,223770
131630,223767
131641,223744
131650,223753
131660,223773
131670,223792
131681,223784
131690,223765
131700,223787
131710,223782
131720,223788
131730,223758
131740,223754
131750,223754
131760,223743
131770,223746
131780,223757
131790,223788
131801,223798
131810,223815
131852,223778
131855,224025
131860,223778
131870,223839
131880,223807
131890,223785
131900,223783
131910,223814
131920,223807
131930,223810
131940,223789
131950,223812
131961,223819
131970,223828
131980,223838
131990,223843
132001,223861
132010,223825
132020,223816
132030,223846
132041,223870
132050,223848
132060,223850
132070,223870
132114,223867
132151,223885
132154,223788
132161,223938
132171,223888
132223,223984
132259,223942
132261,223783
132271,223970
132281,223969
132291,223981
132300,223988
132310,223952
132320,223967
132330,223975
132340,223992
132350,223983
132361,224004
132371,224020
132381,224021
132391,224022
132400,224032
132410,224046
132421,224044
132431,224034
132441,224029
132451,224028
132461,224040
132471,224040
132481,224069
132491,224051
132501,224029
132511,224010
132521,223984
132531,223925
132541,223890
132551,223864
132562,223821
132571,223782
132581,223776
132591,223769
132601,223754
132611,223746
132664,223745
132672,223782
132681,223785
132691,223774
132701,223760
132711,223764
132721,223767
132731,223752
132741,223753
132751,223748
132761,223747
132771,223746
132781,223768
132823,223782
132866,223764
132873,223756
132881,223759
132923,223774
132967,223771
132973,223764
133013,223760
133016,223750
133026,223752
133067,223714
133072,223698
133081,223682
133091,223645
133101,223618
133111,223609
133121,223603
133131,223628
133141,223589
133151,223603
133162,223635
133171,223636
133181,223584
133191,223583
133202,223644
133211,223646
133221,223617
133231,223612
133242,223670
133251,223643
133261,223623
133271,223652
133282,223706
133291,223686
133301,223655
133311,223653
133321,223656
133332,223702
133341,223647
133351,223628
133362,223689
133371,223659
133381,223659
133391,223652
133402,223707
133411,223671
133462,223738
133471,223709
133482,223753
133492,223734
133501,223680
133511,223691
133522,223745
133533,223753
133542,223760
133552,223751
133562,223759
133573,223763
133581,223775
133591,223796
133602,223784
133612,223779
133622,223779
133653,223815
133662,223805
133672,223838
133682,223809
133692,223806
133702,223853
133712,223824
133722,223858
133732,223838
133742,223856
133752,223885
133763,223850
133772,223847
133782,223869
133792,223871
133803,223860
133853,223890
133903,223924
133945,223920
133987,223962
133989,223798
133994,223968
134002,223990
134013,223954
134022,223983
134032,223981
134042,223993
134052,224008
134062,224022
134072,224026
134082,224020
134092,224018
134102,224024
134112,224003
134122,224020
134132,223996
134142,224019
134152,223974
134163,223953
134172,223910
134182,223847
134192,223812
134202,223788
134212,223779
134265,223770
134273,223741
134282,223777
134292,223800
134302,223814
134312,223781
134322,223805
134332,223818
134342,223788
134352,223785
134362,223793
134372,223814
134382,223822
134392,223822
134402,223843
134412,223880
134422,223843
134432,223830
134442,223890
134452,223848
134494,223867
134535,223882
134543,223861
134553,223864
134594,223894
134604,223912
134612,223897
134622,223874
134632,223883
134642,223906
134652,223911
134694,223931
134703,223943
134713,223944
134723,223958
134734,223962
134743,223956
134753,223988
134763,223983
134774,223988
134783,223988
134794,223993
134803,224005
134814,223978
134823,223983
134833,223984
134843,223979
134853,223999
134864,223991
134873,223979
134883,223998
134893,224012
134903,224014
134913,224016
134923,224026
134933,224023
134943,224030
134953,224023
134963,224029
134973,224046
134983,224045
134993,224042
135003,224047
135013,224056
135065,224051
135073,224036
135083,224045
135093,224044
135103,223980
135145,223837
135154,223807
135205,223727
135214,223764
135266,223794
135274,223782
135283,223789
135293,223800
135303,223775
135313,223769
135323,223765
135333,223787
135343,223783
135353,223785
135364,223810
135373,223820
135383,223820
135393,223858
135403,223862
135413,223853
135465,223825
135474,223817
135483,223797
135493,223791
135503,223792
135513,223814
135523,223794
135533,223807
135543,223787
135553,223795
135563,223773
135573,223779
135583,223782
135593,223795
135603,223764
135613,223774
135623,223756
135633,223750
135643,223768
135653,223742
135663,223745
135673,223762
135683,223770
135693,223767
135703,223766
135713,223758
135723,223772
135733,223757
135743,223791
135753,223755
135763,223736
135773,223737
135817,223789
135825,223799
135875,223847
135918,223862
135924,223794
135935,223884
135985,223860
135995,223864
136004,223846
136015,223866
136024,223874
136035,223856
136044,223861
136055,223836
136064,223819
136075,223800
136084,223763
136094,223728
136105,223709
136115,223640
136124,223647
136135,223631
136144,223632
136155,223642
136164,223633
136175,223648
136184,223660
136195,223674
136204,223676
136257,223658
136263,223644
136274,223640
136284,223632
136295,223643
136304,223662
136315,223677
136324,223688
136335,223703
136345,223710
136354,223696
136365,223705
136374,223712
136385,223725
136394,223680
136405,223674
136414,223722
136425,223694
136434,223686
136445,223704
136454,223730
136465,223726
136474,223712
136485,223748
136494,223728
136539,223753
136547,223719
136554,223765
136595,223788
136606,223808
136696,223832
136739,223826
136745,223804
136788,223795
136791,223704
136796,223832
136804,223833
136814,223860
136825,223892
136834,223870
136845,223895
136854,223849
136865,223898
136875,223907
136884,223867
136895,223944
136904,223888
136915,223920
136925,223926
136934,223880
136944,223875
136954,223853
136964,223813
136974,223777
136984,223736
136995,223756
137004,223721
137014,223690
137066,223769
137074,223749
137084,223784
137094,223760
137104,223757
137114,223775
137124,223775
137135,223766
137144,223738
137156,223737
137165,223723
137176,223732
137185,223732
137195,223743
137206,223736
137215,223733
137226,223738
137235,223750
137246,223736
137255,223734
137266,223750
137275,223733
137286,223731
137295,223728
137346,223779
137357,223769
137365,223786
137406,223760
137446,223825
137456,223791
137466,223802
137475,223812
137486,223780
137494,223814
137505,223804
137516,223809
137526,223814
137534,223834
137546,223831
137555,223795
137565,223839
137575,223839
137585,223830
137596,223824
137606,223824
137616,223803
137649,223820
137655,223805
137666,223766
137675,223794
137686,223810
137695,223809
137706,223775
137715,223759
137726,223792
137736,223798
137746,223769
137756,223798
137766,223832
137776,223817
137787,223809
137795,223821
137805,223818
137816,223818
137825,223829
137867,223798
137876,223796
137885,223781
137896,223782
137905,223704
137915,223671
137926,223640
137935,223593
137946,223583
137955,223558
137966,223580
137975,223560
138029,223551
138037,223612
138045,223529
138056,223549
138065,223510
138075,223526
138086,223518
138095,223504
138106,223545
138115,223501
138126,223525
138135,223472
138146,223533
138155,223505
138166,223512
138175,223453
138186,223498
138195,223432
138206,223444
138215,223424
138226,223442
138235,223425
138278,223459
138285,223414
138295,223423
138306,223426
138315,223414
138326,223406
138370,223319
138375,223299
138387,223369
138438,223350
138480,223358
138488,223359
138496,223330
138507,223321
138516,223313
138526,223311
138536,223321
138547,223334
138556,223353
138566,223365
138577,223363
138586,223389
138597,223396
138606,223393
138658,223429
138668,223461
138677,223458
138686,223455
138696,223467
138707,223420
138716,223426
138726,223409
138737,223393
138746,223363
138757,223360
138766,223316
138776,223316
138786,223283
138796,223252
138806,223218
138817,223179
138826,223162
138837,223111
138846,223120
138856,223114
138867,223095
138877,223086
138886,223093
138896,223053
138907,223060
138916,223044
138926,223046
138936,223041
138947,223090
138957,223087
138966,223103
138976,223115
138987,223142
139027,223145
139030,223455
139038,223175
139047,223204
139120,223360
139128,223167
139137,223203
139179,223222
139189,223235
139198,223224
139249,223295
139256,223298
139267,223372
139276,223382
139287,223428
139296,223431
139307,223494
139317,223503
139326,223500
139337,223560
139346,223493
139356,223478
139367,223548
139377,223547
139386,223517
139396,223503
139407,223536
139452,223488
139458,223494
139468,223438
139476,223428
139487,223430
139496,223403
139507,223411
139517,223438
139527,223460
139536,223448
139547,223464
139557,223473
139567,223516
139578,223523
139587,223532
139598,223531
139607,223545
139617,223524
139628,223540
139638,223498
139647,223439
139657,223420
139668,223411
139678,223376
139687,223366
139697,223367
139707,223352
139718,223341
139727,223371
139738,223401
139747,223411
139789,223421
139792,223488
139797,223416
139839,223414
139849,223410
139897,223293
139907,223327
139958,223345
139970,223295
139977,223295
139987,223300
139997,223255
140007,223263
140018,223209
140027,223228
140038,223192
140047,223207
140057,223190
140068,223187
140078,223194
140087,223183
140097,223180
140108,223183
140117,223182
140127,223173
140137,223157
140148,223180
140157,223169
140167,223144
140178,223186
140187,223166
140198,223164
140207,223183
140249,223114
140257,223086
140268,223113
140277,223097
140287,223084
140298,223102
140307,223078
140318,223096
140327,223053
140337,223010
140348,223040
140358,223020
140367,223000
140377,222982
140388,223029
140398,223010
140407,223003
140417,222950
140428,223003
140438,223000
140447,222980
140457,222956
140468,222973
140510,222982
140549,222954
140559,222899
140568,222840
140611,222730
140652,223053
140659,222715
140668,222687
140749,222626
140758,222630
140768,222615
140778,222599
140788,222618
140799,222608
140808,222594
140818,222608
140828,222623
140838,222608
140849,222630
140858,222617
140868,222597
140879,222602
140888,222595
140898,222602
140908,222598
140919,222587
140928,222576
140938,222592
140948,222620
140958,222652
140969,222634
140978,222625
140988,222636
140999,222635
141008,222641
141053,222648
141059,222671
141069,222639
141079,222644
141088,222649
141098,222635
141108,222632
141118,222632
141129,222639
141138,222627
141148,222598
141159,222650
141168,222629
141178,222634
141188,222644
141198,222646
141209,222622
141218,222658
141228,222633
141239,222642
141248,222650
141289,222652
141299,222651
141342,222643
141376,222684
141388,222707
141399,222739
141408,222760
141418,222748
141429,222777
141439,222771
141480,222758
141490,222728
141500,222747
141508,222711
141519,222713
141528,222665
141538,222603
141549,222643
141559,222602
141568,222564
141578,222533
141589,222562
141599,222560
141608,222547
141618,222537
141629,222575
141639,222596
141648,222583
141658,222539
141669,222593
141679,222594
141688,222554
141698,222556
141709,222593
141718,222545
141728,222544
141738,222571
141751,222629
141761,222614
141770,222622
141780,222630
141791,222622
141801,222635
141810,222638
141821,222645
141831,222648
141861,222624
141871,222616
141880,222648
141891,222635
141900,222644
141911,222663
141921,222635
141931,222644
141941,222698
141950,222702
141993,222701
141999,222676
142043,222720
142049,222690
142092,222721
142098,222734
142151,222785
142160,222794
142169,222809
142180,222805
142189,222809
142199,222803
142209,222830
142220,222828
142229,222840
142239,222848
142250,222851
142259,222881
142270,222876
142279,222887
142290,222877
142299,222882
142309,222891
142320,222918
142329,222912
142339,222911
142349,222906
142394,222946
142400,222918
142410,222944
142420,222933
142429,222937
142439,222896
142449,222926
142460,222870
142469,222842
142479,222819
142490,222786
142499,222745
142510,222739
142519,222709
142530,222721
142539,222735
142549,222729
142559,222733
142569,222764
142579,222733
142589,222764
142599,222746
142610,222764
142619,222778
142630,222758
142639,222757
142650,222749
142693,222731
142700,222757
142743,222804
142750,222792
142801,222783
142810,222764
142850,222798
142861,222809
142869,222805
142879,222790
142890,222853
142899,222828
142910,222840
142919,222795
142930,222869
142939,222810
142950,222851
142959,222823
142969,222811
142979,222814
142989,222804
143000,222849
143009,222807
143019,222819
143030,222858
143039,222819
143049,222825
143093,222874
143100,222875
143111,222887
143119,222858
143130,222865
143139,222859
143150,222878
143160,222887
143170,222870
143179,222884
143190,222889
143199,222894
143210,222895
143221,222889
143230,222903
143240,222899
143251,222906
143260,222912
143270,222905
143281,222907
143290,222926
143300,222918
143310,222906
143320,222931
143331,222933
143340,222921
143350,222931
143360,222938
143401,222959
143411,222938
143452,222878
143463,222844
143500,222709
143535,222663
143543,222889
143552,222636
143562,222640
143570,222634
143580,222628
143590,222651
143601,222655
143610,222620
143620,222617
143630,222627
143640,222645
143651,222619
143660,222646
143670,222598
143681,222606
143690,222644
143700,222618
143710,222663
143720,222653
143731,222651
143740,222679
143751,222667
143760,222643
143770,222645
143780,222635
143790,222661
143800,222625
143811,222654
143820,222645
143830,222631
143841,222661
143850,222667
143891,222647
143902,222586
143910,222657
143921,222653
143930,222645
143940,222636
143950,222651
143960,222633
143971,222645
143980,222641
143990,222633
144001,222682
144010,222656
144020,222649
144030,222652
144040,222647
144051,222681
144060,222661
144101,222635
144110,222647
144151,222695
144191,222720
144232,222669
144242,222664
144273,222693
144312,222724
144323,222747
144331,222749
144340,222736
144350,222732
144360,222739
144370,222735
144381,222760
144390,222782
144400,222751
144411,222771
144422,222772
144431,222760
144441,222756
144452,222751
144461,222749
144471,222735
144481,222719
144492,222699
144501,222633
144512,222613
144521,222569
144531,222541
144541,222539
144551,222531
144561,222508
144572,222521
144581,222513
144591,222515
144601,222544
144611,222527
144622,222546
144631,222522
144641,222553
144651,222558
144692,222540
144702,222521
144711,222549
144722,222570
144731,222581
144741,222592
144751,222602
144761,222610
144771,222597
144812,222607
144821,222597
144861,222634
144893,222622
144901,222614
144911,222636
144921,222613
144932,222647
144941,222650
144952,222667
144961,222672
144971,222677
144982,222655
144991,222674
145001,222692
145012,222698
145021,222678
145032,222682
145041,222703
145051,222691
145091,222706
145102,222722
145112,222698
145122,222727
145131,222718
145141,222713
145151,222716
145161,222732
145172,222732
145181,222738
145192,222761
145201,222746
145211,222747
145222,222768
145231,222763
145241,222740
145251,222759
145261,222755
145271,222768
145282,222798
145291,222772
145301,222780
145311,222765
145322,222792
145331,222796
145341,222777
145351,222773
145362,222825
145371,222774
145382,222824
145391,222792
145432,222821
145443,222836
145468,222740
145471,222713
145476,222682
145505,222591
145512,222535
145544,222593
145552,222571
145561,222543
145571,222549
145582,222572
145592,222581
145602,222595
145611,222559
145621,222561
145631,222576
145641,222568
145651,222572
145661,222591
145672,222584
145682,222607
145692,222616
145732,222618
145742,222630
145752,222630
145762,222634
145772,222621
145782,222630
145792,222622
145802,222611
145813,222598
145822,222626
145833,222642
145843,222659
145853,222636
145863,222654
145872,222673
145882,222678
145893,222654
145902,222673
145912,222674
145922,222646
145932,222666
145943,222661
145952,222675
145962,222660
145973,222645
145982,222670
145992,222667
146002,222684
146032,222662
146044,222709
146053,222691
146062,222637
146073,222613
146082,222555
146092,222525
146103,222515
146112,222484
146122,222433
146133,222432
146142,222420
146153,222410
146162,222414
146172,222434
146183,222466
146192,222477
146202,222437
146213,222464
146222,222471
146232,222463
146242,222441
146253,222455
146283,222481
146294,222492
146303,222480
146312,222489
146322,222484
146333,222506
146342,222495
146352,222496
146362,222502
146373,222500
146382,222484
146392,222503
146426,222509
146433,222472
146442,222486
146473,222456
146483,222510
146524,222485
146532,222491
146542,222464
146553,222500
146562,222494
146572,222468
146582,222487
146593,222510
146602,222483
146612,222495
146623,222525
146632,222476
146642,222487
146653,222526
146683,222491
146694,222541
146703,222509
146712,222515
146722,222483
146733,222533
146742,222486
146752,222527
146762,222504
146773,222543
146782,222502
146792,222521
146802,222502
146813,222551
146822,222517
146832,222534
146842,222535
146853,222562
146862,222544
146872,222585
146882,222568
146893,222564
146902,222558
146913,222578
146922,222587
146933,222577
146942,222604
146953,222595
146963,222595
146974,222605
146983,222622
146993,222605
147004,222621
147013,222613
147024,222628
147033,222616
147064,222658
147074,222642
147104,222625
147115,222657
147123,222680
147153,222669
147162,222668
147191,222692
147203,222672
147214,222644
147223,222668
147233,222642
147243,222626
147253,222579
147264,222539
147273,222495
147283,222462
147294,222420
147303,222389
147314,222376
147323,222375
147333,222367
147344,222384
147353,222400
147364,222388
147373,222421
147383,222392
147393,222397
147404,222426
147413,222423
147423,222407
147433,222389
147443,222415
147454,222435
147486,222450
147494,222478
147503,222462
147513,222487
147523,222474
147534,222512
147543,222502
147554,222494
147563,222498
147574,222515
147583,222465
147593,222502
147603,222486
147614,222502
147623,222487
147634,222514
147643,222492
147653,222498
147664,222513
147673,222503
147683,222480
147694,222520
147703,222502
147714,222523
147745,222522
147754,222523
147800,222522
147802,222543
147805,222479
147816,222536
147844,222563
147874,222545
147884,222552
147935,222574
147945,222608
147954,222577
147963,222588
147973,222596
147984,222619
147993,222605
148003,222598
148014,222647
148023,222587
148034,222651
148043,222596
148053,222619
148064,222648
148073,222629
148084,222652
148093,222651
148104,222654
148113,222651
148124,222653
148133,222667
148144,222673
148155,222668
148164,222660
148175,222682
148184,222664
148195,222641
148204,222605
148215,222571
148224,222521
148235,222485
148244,222445
148255,222398
148286,222365
148296,222388
148304,222385
148314,222408
148324,222409
148335,222418
148344,222426
148355,222438
148364,222428
148375,222437
148384,222414
148395,222406
148404,222416
148415,222396
148424,222399
148435,222398
148444,222417
148474,222431
148504,222420
148536,222448
148544,222438
148555,222415
148564,222422
148575,222403
148584,222410
148595,222424
148604,222434
148615,222429
148624,222455
148635,222444
148644,222460
148655,222444
148685,222446
148697,222412
148706,222432
148714,222443
148725,222452
148734,222439
148745,222461
148754,222447
148765,222460
148774,222483
148784,222477
148795,222485
148804,222495
148815,222499
148824,222484
148835,222496
148844,222479
148855,222501
148864,222487
148875,222507
148884,222487
148895,222498
148904,222504
148915,222514
148924,222482
148935,222517
148944,222498
148955,222518
148964,222503
148975,222521
148984,222491
148995,222536
149004,222524
149015,222553
149024,222483
149035,222535
149086,222544
149094,222492
149105,222492
149136,222446
149145,222562
149178,222523
149184,222482
149195,222453
149204,222407
149215,222355
149224,222308
149234,222298
149245,222261
149254,222242
149265,222250
149275,222224
149284,222215
149295,222245
149304,222235
149315,222247
149325,222250
149336,222257
149345,222259
149355,222242
149365,222244
149376,222252
149385,222239
149395,222227
149406,222239
149415,222233
149426,222241
149435,222222
149445,222247
149456,222269
149485,222220
149495,222230
149505,222244
149515,222242
149526,222237
149535,222251
149546,222252
149555,222250
149565,222266
149576,222252
149585,222280
149595,222277
149605,222278
149616,222290
149625,222290
149635,222270
149646,222278
149655,222278
149666,222277
149675,222295
149707,222297
149716,222276
149725,222285
149735,222271
149746,222243
149755,222215
149766,222185
149776,222167
149786,222121
149796,222105
149806,222113
149815,222129
149825,222119
149835,222100
149845,222119
149856,222126
149866,222131
149906,222131
149915,222140
149926,222109
149936,222172
149946,222155
149955,222165
149965,222177
149976,222168
149985,222183
149995,222186
150006,222228
150016,222205
150025,222188
150035,222171
150045,222167
150055,222175
150066,222166
150075,222150
150105,222213
150117,222212
150148,222239
150157,222284
150186,222183
150197,222223
150206,222257
150215,222218
150226,222239
150235,222209
150246,222283
150255,222220
150265,222233
150275,222248
150285,222258
150296,222300
150305,222245
150315,222234
150326,222295
150335,222254
150346,222302
150355,222254
150387,222280
150396,222268
150405,222259
150416,222295
150425,222282
150436,222293
150445,222290
150456,222310
150465,222294
150476,222318
150485,222295
150496,222298
150505,222317
150516,222312
150526,222326
150536,222323
150546,222355
150556,222329
150566,222346
150576,222343
150586,222355
150596,222349
150606,222367
150616,222371
150626,222378
150636,222380
150646,222368
150657,222373
150687,222365
150699,222398
150707,222416
150736,222396
150768,222412
150776,222423
150786,222439
150820,222451
150827,222440
150856,222425
150866,222395
150876,222346
150886,222300
150896,222229
150906,222190
150916,222138
150926,222105
150936,222069
150946,222059
150957,222062
150966,222108
150976,222076
150986,222093
150996,222113
151006,222111
151016,222123
151026,222143
151036,222156
151046,222148
151056,222157
151089,222156
151099,222156
151106,222164
151116,222195
151126,222206
151137,222226
151146,222214
151157,222232
151166,222214
151177,222217
151186,222213
151197,222223
151206,222206
151217,222204
151226,222194
151237,222194
151246,222188
151257,222202
151266,222199
151277,222204
151286,222201
151297,222215
151306,222187
151317,222223
151326,222191
151337,222221
151346,222200
151377,222193
151387,222241
151419,222242
151427,222200
151457,222304
151488,222248
151518,222253
151527,222236
151557,222242
151566,222228
151577,222281
151586,222263
151597,222277
151606,222280
151617,222281
151626,222274
151637,222306
151646,222299
151657,222298
151666,222306
151677,222324
151687,222332
151697,222315
151707,222320
151717,222315
151727,222326
151737,222339
151747,222333
151757,222322
151767,222319
151777,222340
151787,222352
151797,222349
151807,222344
151817,222334
151827,222332
151837,222317
151847,222343
151858,222326
151887,222349
151897,222279
151907,222239
151917,222189
151927,222131
151937,222086
151947,222043
151957,222012
151967,222009
151977,221977
151987,221981
152016,221983
152076,222016
152078,221968
152087,221992
152097,221994
152107,221984
152117,221996
152127,221978
152137,221997
152147,222006
152158,222022
152167,222030
152177,222021
152187,222015
152197,222019
152207,222030
152217,222032
152227,222022
152237,222039
152247,222028
152257,222042
152288,222018
152297,222025
152307,222058
152317,222060
152327,222054
152337,222059
152347,222067
152357,222068
152367,222062
152377,222057
152387,222073
152397,222068
152407,222073
152417,222079
152427,222087
152437,222084
152447,222091
152457,222104
152467,222098
152477,222092
152487,222098
152497,222103
152507,222120
152517,222117
152527,222132
152537,222119
152547,222117
152557,222144
152567,222128
152577,222149
152619,222167
152647,222179
152659,222173
152707,222223
152710,222057
152718,222198
152727,222175
152737,222163
152747,222160
152757,222193
152767,222210
152777,222207
152787,222221
152797,222211
152807,222237
152817,222235
152827,222217
152838,222235
152847,222244
152859,222210
152869,222201
152878,222176
152889,222148
152899,222077
152909,222043
152918,222008
152928,221992
152939,221964
152949,221960
152958,221949
152969,221959
152979,221953
152989,221982
152998,221992
153008,222009
153018,221993
153028,221997
153038,221981
153048,221979
153058,221994
153088,221990
153098,222003
153109,222004
153118,222015
153128,222029
153138,222032
153148,222076
153158,222080
153168,222076
153178,222062
153188,222066
153198,222074
153208,222073
153218,222071
153247,222055
153258,222046
153268,222076
153302,222073
153309,222084
153339,222069
153349,222086
153358,222087
153368,222090
153378,222092
153388,222095
153398,222106
153408,222121
153418,222114
153428,222126
153438,222139
153448,222127
153458,222125
153488,222133
153500,222116
153508,222140
153518,222131
153528,222154
153539,222142
153549,222162
153559,222147
153569,222167
153578,222181
153589,222192
153599,222181
153608,222162
153618,222152
153651,222162
153658,222181
153669,222201
153680,222231
153689,222238
153700,222218
153709,222228
153718,222194
153729,222217
153738,222215
153748,222195
153759,222204
153769,222226
153778,222189
153788,222165
153799,222204
153809,222174
153819,222099
153828,222026
153838,221981
153866,221947
153881,221922
153889,221904
153920,221957
153929,221960
153962,222041
153970,221965
153999,221949
154010,221960
154019,221950
154028,221948
154038,221968
154050,221983
154060,221996
154068,222018
154079,222023
154090,222002
154100,222024
154109,222032
154119,222033
154130,222041
154140,222031
154149,222017
154158,222015
154170,222026
154180,222034
154189,222022
154199,222025
154210,222015
154220,222030
154229,222038
154239,222054
154250,222042
154290,222067
154299,222071
154309,222059
154319,222062
154330,222064
154340,222065
154349,222087
154359,222083
154370,222096
154380,222089
154389,222121
154399,222104
154410,222111
154420,222105
154429,222112
154439,222093
154450,222102
154460,222108
154469,222117
154511,222136
154522,222113
154552,222134
154561,222110
154591,222151
154632,222164
154641,222153
154670,222178
154700,222190
154709,222183
154719,222190
154730,222191
154740,222162
154749,222135
154759,222102
154770,222043
154780,222007
154789,221911
154799,221879
154810,221882
154820,221867
154829,221847
154839,221855
154850,221884
154860,221884
154869,221861
154879,221870
154889,221861
154899,221876
154909,221873
154919,221852
154929,221857
154939,221850
154949,221857
154959,221834
154969,221852
154979,221837
154989,221838
154999,221859
155009,221848
155019,221848
155029,221857
155039,221848
155049,221852
155060,221855
155091,221835
155099,221829
155109,221833
155119,221825
155129,221842
155139,221834
155149,221832
155159,221852
155169,221844
155203,221895
155210,221902
155221,221872
155250,221898
155282,221912
155289,221946
155301,221920
155311,221934
155320,221937
155331,221945
155341,221932
155351,221958
155360,221960
155370,221964
155381,221965
155391,221972
155400,221974
155411,221982
155421,221981
155431,221977
155440,221960
155450,221968
155480,221972
155483,221832
155490,221967
155500,222010
155510,222000
155520,221999
155531,222012
155541,222007
155551,222026
155560,222013
155570,222031
155581,222031
155591,222056
155600,222040
155611,222040
155621,222050
155630,222060
155640,222057
155651,222046
155661,222042
155671,222034
155680,222019
155691,222022
155701,221976
155711,221932
155720,221889
155731,221831
155741,221806
155751,221777
155761,221764
155770,221776
155781,221765
155811,221828
155822,221842
155852,221798
155899,221836
155901,221820
155911,221866
155941,221865
155951,221891
155960,221895
155971,221906
155981,221917
155990,221905
156001,221911
156011,221918
156021,221918
156031,221914
156040,221894
156051,221918
156061,221905
156071,221906
156080,221878
156091,221908
156101,221912
156110,221900
156121,221898
156131,221924
156141,221919
156151,221923
156161,221936
156170,221905
156181,221934
156191,221939
156200,221917
156211,221966
156221,221967
156231,221971
156240,221940
156251,221964
156280,221967
156282,221891
156291,221950
156300,221929
156311,221980
156321,221974
156331,221973
156341,221989
156351,221991
156360,221954
156371,221991
156381,221995
156391,222004
156400,221980
156411,222004
156421,222029
156431,222002
156440,221998
156470,222017
156472,221994
156481,222036
156512,222042
156521,222020
156552,222076
156561,222064
156571,222048
156581,222049
156591,222016
156601,221992
156611,221948
156621,221877
156631,221862
156642,221803
156653,221754
156682,221760
156691,221728
156701,221735
156711,221759
156721,221749
156731,221755
156741,221765
156751,221772
156762,221774
156772,221773
156782,221770
156791,221772
156801,221774
156811,221754
156821,221756
156831,221770
156842,221769
156852,221775
156862,221780
156871,221776
156881,221808
156891,221793
156901,221795
156911,221784
156922,221780
156932,221763
156942,221783
156952,221757
156961,221780
156972,221784
156982,221803
156991,221816
157002,221811
157012,221814
157022,221820
157031,221812
157042,221828
157102,221798
157142,221832
157152,221833
157185,221853
157192,221850
157201,221838
157211,221839
157221,221849
157231,221842
157241,221828
157251,221845
157261,221859
157271,221845
157281,221862
157292,221891
157302,221891
157312,221894
157322,221900
157332,221913
157341,221878
157353,221907
157361,221881
157402,221887
157412,221932
157422,221955
157432,221935
157442,221900
157453,221939
157462,221934
157472,221943
157482,221937
157492,221919
157501,221895
157511,221873
157521,221876
157531,221865
157543,221839
157552,221813
157561,221753
157592,221631
157602,221591
157612,221579
157622,221572
157631,221584
157643,221573
157653,221575
157663,221592
157672,221613
157682,221606
157692,221617
157702,221602
157713,221624
157723,221593
157733,221603
157743,221588
157751,221602
157762,221591
157772,221603
157782,221598
157793,221601
157803,221626
157813,221601
157823,221618
157832,221609
157842,221615
157871,221621
157874,221839
157883,221602
157893,221579
157903,221591
157913,221585
157922,221623
157932,221627
157942,221604
157953,221601
157963,221618
157973,221602
157983,221635
157992,221606
158002,221616
158012,221619
158022,221619
158033,221612
158043,221608
158053,221617
158063,221612
158095,221649
158121,221666
158123,221598
158134,221656
158161,221678
158193,221681
158203,221684
158231,221694
158242,221720
158252,221725
158262,221728
158273,221754
158283,221746
158313,221753
158324,221768
158333,221792
158343,221807
158353,221793
158363,221793
158373,221799
158383,221812
158392,221812
158402,221772
158412,221780
158422,221780
158433,221831
158443,221820
158453,221814
158463,221813
158472,221796
158482,221751
158492,221739
158502,221711
158513,221708
158523,221661
158533,221630
158543,221588
158553,221557
158562,221501
158572,221488
158582,221471
158593,221537
158603,221540
158613,221542
158623,221530
158632,221511
158642,221516
158672,221526
158674,221807
158684,221514
158693,221539
158703,221552
158713,221570
158723,221569
158733,221584
158763,221597
158774,221649
158803,221616
158834,221597
158843,221625
158853,221629
158863,221613
158874,221635
158883,221634
158893,221647
158903,221636
158914,221652
158923,221655
158933,221654
158943,221666
158953,221664
158963,221658
158973,221663
158983,221656
158993,221643
159003,221652
159013,221667
159023,221659
159034,221660
159044,221664
159083,221686
159094,221670
159104,221652
159113,221674
159123,221653
159133,221669
159143,221681
159154,221677
159164,221666
159174,221672
159184,221670
159193,221670
159203,221698
159213,221686
159223,221697
159234,221669
159244,221666
159254,221695
159264,221676
159273,221699
159283,221694
159293,221696
159303,221725
159314,221707
159324,221711
159334,221721
159364,221625
159374,221678
159405,221671
159436,221522
159443,221502
159453,221467
159463,221441
159505,221392
159513,221419
159523,221421
159533,221388
159543,221423
159554,221475
159564,221456
159574,221484
159584,221482
159593,221447
159603,221440
159613,221432
159623,221425
159634,221490
159644,221487
159654,221497
159664,221515
159673,221481
159683,221461
159693,221473
159703,221493
159714,221528
159724,221511
159734,221534
159744,221518
159754,221539
159763,221473
159773,221461
159783,221459
159794,221502
159804,221511
159814,221505
159824,221517
159833,221500
159843,221509
159853,221499
159884,221521
159894,221537
159903,221536
159913,221543
159923,221557
159933,221564
159966,221487
159974,221508
160007,221580
160014,221629
160046,221597
160055,221608
160064,221623
160075,221626
160084,221627
160094,221632
160104,221626
160115,221624
160124,221635
160134,221624
160144,221618
160154,221640
160165,221640
160174,221645
160184,221639
160194,221654
160204,221640
160214,221662
160224,221671
160235,221663
160244,221664
160255,221658
160284,221711
160295,221667
160304,221670
160314,221660
160324,221670
160334,221637
160344,221623
160355,221573
160364,221507
160374,221461
160384,221413
160395,221364
160404,221319
160414,221331
160424,221335
160435,221317
160444,221296
160454,221345
160464,221357
160475,221338
160484,221365
160494,221343
160504,221349
160515,221354
160524,221348
160534,221330
160544,221344
160554,221338
160585,221337
160595,221347
160626,221375
160636,221410
160676,221381
160714,221336
160725,221340
160734,221353
160744,221332
160754,221353
160764,221349
160774,221336
160784,221342
160795,221407
160804,221372
160814,221352
160824,221352
160835,221402
160844,221366
160854,221360
160864,221364
160875,221408
160884,221384
160894,221384
160904,221367
160915,221440
160924,221428
160934,221385
160944,221393
160954,221405
160964,221418
160974,221381
160984,221403
160995,221450
161004,221418
161014,221422
161024,221399
161035,221466
161044,221426
161085,221457
161095,221486
161105,221501
161115,221496
161125,221491
161135,221477
161144,221458
161155,221484
161165,221511
161175,221511
161185,221523
161195,221514
161206,221513
161215,221526
161246,221518
161257,221511
161286,221455
161296,221414
161305,221365
161315,221292
161325,221283
161336,221250
161346,221249
161355,221220
161365,221226
161376,221248
161385,221247
161395,221265
161405,221279
161415,221276
161425,221257
161435,221299
161445,221270
161455,221266
161496,221316
161505,221345
161516,221326
161525,221354
161536,221351
161545,221318
161556,221313
161566,221307
161575,221331
161585,221310
161595,221284
161606,221243
161615,221252
161627,221244
161635,221285
161645,221273
161676,221325
161685,221260
161715,221356
161758,221383
161766,221385
161775,221420
161785,221410
161795,221443
161805,221434
161815,221446
161825,221423
161835,221425
161845,221415
161855,221410
161865,221418
161875,221381
161885,221361
161895,221357
161905,221338
161915,221351
161925,221349
161935,221377
161945,221356
161955,221366
161989,221330
161996,221415
162006,221473
162015,221449
162025,221446
162035,221467
162045,221455
162055,221478
162065,221491
162075,221501
162085,221488
162095,221481
162105,221463
162115,221470
162125,221472
162135,221482
162145,221511
162155,221507
162167,221554
162175,221489
162185,221457
162195,221426
162205,221397
162216,221386
162226,221369
162235,221332
162245,221345
162286,221286
162318,221281
162327,221206
162336,221261
162369,221337
162377,221357
162416,221411
162447,221303
162456,221285
162466,221288
162476,221264
162486,221270
162496,221268
162506,221259
162516,221277
162526,221275
162536,221311
162546,221290
162556,221297
162566,221304
162576,221324
162586,221313
162596,221284
162606,221303
162616,221265
162626,221267
162636,221273
162646,221266
162687,221289
162697,221317
162706,221269
162716,221329
162726,221302
162736,221321
162746,221322
162756,221303
162766,221328
162776,221291
162786,221279
162796,221222
162806,221249
162816,221258
162826,221277
162836,221291
162846,221318
162856,221347
162866,221367
162876,221380
162886,221358
162896,221362
162906,221313
162917,221317
162927,221349
162936,221353
162946,221327
162978,221366
162987,221338
162997,221354
163037,221365
163069,221359
163078,221310
163110,221174
163118,221181
163126,221140
163136,221130
163146,221119
163156,221122
163166,221163
163176,221154
163186,221167
163197,221282
163206,221290
163216,221282
163226,221308
163237,221396
163246,221395
163256,221383
163266,221383
163277,221458
163286,221442
163296,221445
163306,221439
163317,221494
163326,221485
163336,221509
163346,221532
163356,221574
163366,221602
163376,221620
163386,221622
163397,221638
163406,221623
163416,221630
163426,221639
163437,221619
163447,221622
163487,221602
163496,221594
163507,221618
163517,221656
163527,221664
163537,221661
163547,221637
163557,221657
163567,221617
163577,221627
163608,221645
163617,221633
163689,221712
163728,221727
163738,221729
163747,221713
163757,221723
163767,221741
163777,221749
163787,221748
163798,221782
163807,221762
163817,221745
163827,221780
163837,221773
163847,221767
163887,221804
163897,221776
163907,221745
163917,221711
163927,221652
163937,221647
163947,221624
163957,221568
163967,221569
163977,221575
163987,221554
163997,221558
164007,221565
164017,221565
164027,221575
164037,221572
164047,221584
164057,221581
164067,221597
164077,221580
164087,221587
164097,221591
164107,221603
164117,221588
164127,221594
164137,221614
164147,221611
164157,221645
164167,221640
164177,221658
164187,221646
164197,221654
164207,221673
164217,221660
164227,221685
164317,221707
164327,221752
164338,221729
164379,221746
164388,221754
164397,221786
164407,221761
164417,221769
164427,221778
164437,221801
164447,221777
164457,221773
164467,221763
164477,221762
164487,221781
164497,221798
164507,221785
164517,221831
164527,221811
164537,221817
164547,221818
164557,221828
164567,221828
164577,221821
164588,221828
164598,221842
164607,221830
164617,221850
164627,221864
164638,221856
164647,221883
164690,221925
164698,221942
164708,221915
164719,221904
164728,221900
164738,221892
164748,221864
164758,221832
164769,221804
164778,221767
164788,221723
164798,221705
164808,221667
164818,221672
164828,221685
164838,221697
164848,221706
164858,221711
164868,221704
164878,221745
164888,221750
164918,221754
164948,221814
164958,221826
164968,221847
165000,221843
165008,221863
165041,221958
165048,221993
165059,222032
165089,221943
165098,221943
165108,221947
165118,221922
165128,221949
165138,221980
165148,221992
165158,221968
165168,222021
165178,222064
165188,222073
165198,222113
165208,222185
165218,222180
165228,222193
165238,222187
165248,222200
165258,222234
165268,222275
165278,222277
165288,222315
165298,222302
165308,222307
165318,222266
165328,222248
165338,222215
165348,222201
165358,222145
165368,222184
165378,222207
165388,222225
165399,222218
165408,222164
165418,222137
165428,222103
165438,222092
165448,222084
165482,222070
165489,222131
165499,222175
165508,222203
165518,222185
165529,222262
165538,222220
165549,222240
165560,222233
165568,222188
165579,222170
165588,222153
165599,222148
165609,222166
165619,222117
165628,222065
165638,222040
165648,222034
165689,222051
165699,222058
165709,222018
165718,222015
165729,222078
165739,222060
165749,222107
165760,222101
165768,222072
165778,222086
165789,222138
165798,222128
165808,222152
165819,222151
165829,222176
165838,222159
165848,222150
165882,222144
165890,222145
165920,222176
165931,222181
165969,222202
165999,222199
166033,222164
166041,222181
166049,222201
166060,222217
166069,222233
166079,222237
166090,222247
166099,222234
166109,222256
166119,222273
166130,222258
