elapsed_ms,ir
105495,62739
105506,62734
105515,62712
105525,62730
105535,62733
105546,62760
105555,62715
105565,62747
105575,62721
105585,62750
105595,62763
105605,62763
105616,62759
105626,62770
105635,62753
105646,62770
105657,62779
105666,62765
105676,62769
105686,62780
105696,62778
105706,62769
105717,62752
105726,62767
105737,62769
105746,62769
105756,62767
105767,62761
105776,62768
105786,62776
105797,62789
105806,62781
105817,62800
105826,62801
105836,62792
105847,62805
105856,62806
105866,62812
105877,62829
105886,62794
105897,62818
105906,62792
105917,62815
105926,62823
105936,62775
105946,62815
105957,62825
105966,62819
105977,62820
105986,62838
105998,62814
106136,62787
106139,62776
106147,62798
106157,62813
106166,62774
106177,62796
106186,62783
106196,62767
106207,62810
106216,62767
106226,62738
106237,62788
106246,62749
106257,62800
106266,62739
106276,62750
106287,62777
106296,62740
106307,62788
106316,62748
106326,62732
106336,62739
106346,62718
106357,62745
106366,62731
106377,62748
106386,62733
106397,62752
106406,62753
106417,62754
106428,62762
106437,62760
106448,62753
106457,62770
106468,62791
106477,62776
106488,62771
106497,62777
106508,62780
106517,62780
106527,62780
106538,62774
106547,62787
106558,62787
106567,62795
106578,62776
106587,62784
106598,62805
106607,62805
106618,62724
106627,60288
106638,60958
106742,62197
106798,61289
106807,62670
106817,62627
106827,62544
106838,62526
106847,62515
106858,62533
106867,62510
106878,62481
106887,62464
106898,62480
106907,62479
106918,62482
106927,62462
106938,62465
106947,62448
106958,62468
106967,62431
106978,62435
106987,62380
106998,62422
107007,62393
107018,62405
107027,62367
107038,62398
107047,62350
107058,62379
107067,62341
107078,62360
107087,62329
107098,62362
107109,62358
107117,62358
107127,62356
107138,62367
107147,62352
107158,62370
107167,62381
107178,62369
107188,62380
107198,62377
107208,62403
107218,62388
107228,62388
107238,62407
107248,62404
107258,62413
107268,62404
107278,62432
107288,62428
107298,62435
107308,62436
107361,62424
107413,62473
107419,62492
107471,62352
107478,62486
107488,62507
107498,62501
107508,62504
107518,62514
107528,62519
107538,62508
107549,62501
107558,62527
107588,62542
107598,62541
107608,62541
107618,62542
107628,62547
107639,62551
107648,62551
107658,62549
107669,62572
107678,62561
107688,62577
107698,62582
107708,62581
107718,62564
107728,62571
107738,62573
107748,62580
107758,62577
107768,62581
107778,62568
107788,62583
107798,62562
107808,62568
107818,62544
107828,62533
107838,62525
107848,62505
107858,62503
107868,62488
107878,62490
107888,62450
107899,62459
107908,62466
107918,62464
107928,62433
107938,62435
107948,62427
107958,62452
107970,62444
107979,62465
107990,62471
108000,62464
108010,62471
108019,62472
108030,62477
108040,62468
108050,62479
108059,62468
108070,62465
108080,62468
108090,62469
108099,62480
108110,62494
108120,62485
108130,62481
108139,62472
108150,62489
108160,62490
108207,62477
108260,62497
108262,62466
108271,62484
108281,62491
108332,62480
108340,62502
108395,62504
108402,62502
108410,62516
108419,62538
108430,62545
108440,62557
108450,62551
108459,62534
108470,62564
108480,62576
108490,62549
108499,62541
108510,62561
108520,62564
108530,62552
108539,62537
108550,62556
108560,62554
108570,62574
108579,62518
108590,62544
108600,62558
108610,62523
108619,62500
108630,62522
108640,62518
108650,62520
108659,62485
108670,62486
108680,62510
108690,62502
108742,62501
108750,62463
108760,62492
108770,62490
108781,62496
108791,62484
108801,62486
108811,62490
108821,62496
108831,62483
108841,62483
108893,62472
108944,62470
108951,62459
108960,62465
109013,62483
109023,62470
109030,62477
109040,62476
109050,62484
109061,62482
109071,62495
109080,62486
109090,62494
109139,62496
109187,62483
109191,62503
109201,62477
109210,62514
109221,62520
109230,62502
109240,62481
109250,62480
109261,62531
109271,62532
109280,62482
109290,62478
109301,62517
109311,62532
109321,62516
109331,62523
109340,62489
109350,62463
109360,62469
109370,62463
109381,62514
109391,62501
109401,62480
109410,62454
109421,62493
109431,62480
109441,62469
109451,62471
109460,62478
109470,62465
109480,62463
109490,62463
109596,62381
109601,62370
109611,62360
109664,62361
109672,62366
109724,62379
109731,62360
109784,62390
109791,62372
109801,62384
109811,62400
109822,62391
109831,62399
109841,62418
109851,62422
109861,62416
109871,62432
109881,62429
109891,62441
109944,62444
109953,62452
109961,62449
109971,62464
109982,62480
109992,62500
110001,62486
110011,62462
110022,62518
110031,62489
110041,62468
110051,62473
110062,62513
110071,62506
110081,62484
110091,62486
110102,62530
110111,62527
110121,62497
110131,62512
110142,62546
110151,62521
110161,62510
110171,62508
110182,62532
110191,62520
110201,62542
110211,62524
110222,62556
110231,62550
110241,62568
110251,62543
110262,62577
110272,62573
110282,62574
110333,62579
110342,62584
110430,62564
110443,62525
110504,62456
110553,62421
110562,62423
110573,62435
110582,62446
110592,62465
110602,62461
110612,62472
110622,62450
110632,62482
110642,62479
110652,62494
110662,62475
110672,62500
110682,62486
110692,62479
110752,62476
110762,62470
110772,62475
110782,62466
110792,62488
110803,62462
110813,62510
110822,62470
110860,62462
110865,62489
110873,62513
110883,62506
110892,62472
110903,62476
110913,62520
110922,62472
110932,62470
110942,62474
110952,62471
110963,62506
110972,62486
110982,62502
110992,62512
111002,62512
111012,62522
111023,62546
111034,62537
111043,62548
111054,62566
111105,62517
111115,62531
111162,62552
111214,62496
111225,62532
111276,62513
111283,62496
111293,62519
111303,62498
111314,62503
111323,62509
111334,62487
111343,62483
111354,62495
111363,62496
111374,62501
111383,62493
111394,62504
111403,62503
111414,62497
111423,62489
111434,62495
111443,62512
111454,62501
111463,62485
111474,62498
111483,62491
111494,62494
111545,62481
111547,62542
111554,62457
111563,62451
111574,62496
111583,62467
111594,62484
111603,62466
111614,62482
111623,62485
111634,62502
111643,62457
111654,62496
111663,62475
111673,62466
111684,62493
111693,62484
111703,62477
111714,62501
111723,62465
111734,62488
111743,62484
111754,62508
111763,62498
111774,62501
111834,62501
111844,62478
111895,62490
111990,62469
111992,62502
111995,62436
112005,62479
112014,62468
112024,62493
112035,62487
112044,62475
112054,62477
112065,62472
112074,62468
112084,62494
112094,62439
112105,62474
112114,62470
112125,62474
112134,62451
112144,62457
112154,62442
112165,62440
112174,62413
112184,62438
112194,62419
112205,62416
112214,62386
112267,62359
112274,62341
112285,62399
112294,62358
112356,62391
112365,62380
112375,62405
112385,62399
112394,62354
112405,62404
112414,62351
112424,62381
112434,62375
112445,62399
112454,62358
112464,62372
112474,62366
112485,62409
112494,62398
112504,62394
112514,62410
112567,62464
112578,62441
112627,62417
112638,62453
112696,62573
112705,62500
112765,62512
112775,62533
112786,62517
112795,62522
112805,62538
112815,62531
112825,62538
112835,62526
112845,62541
112855,62528
112866,62533
112875,62551
112885,62515
112895,62578
112905,62570
112915,62565
112925,62566
112935,62559
112946,62581
112955,62571
112965,62580
112975,62586
112985,62561
112995,62583
113005,62573
113015,62579
113026,62580
113035,62578
113045,62574
113055,62574
113065,62549
113075,62561
113085,62533
113095,62529
113150,62470
113156,62505
113166,62484
113175,62444
113185,62450
113195,62423
113205,62454
113259,62461
113266,62482
113276,62443
113330,62433
113336,62443
113396,62478
113407,62384
113416,62487
113427,62490
113437,62495
113446,62482
113457,62471
113466,62481
113476,62482
113487,62470
113496,62488
113557,62503
113567,62494
113576,62489
113586,62477
113597,62494
113606,62471
113617,62483
113626,62486
113636,62474
113647,62489
113656,62507
113666,62500
113677,62509
113686,62526
113697,62512
113706,62521
113716,62513
113727,62548
113736,62549
113746,62529
113757,62566
113766,62562
113777,62549
113786,62545
113796,62536
113807,62568
113816,62554
113826,62533
113837,62562
113846,62543
113857,62556
113866,62534
113876,62538
113887,62541
113896,62546
113948,62540
113997,62489
114008,62488
114059,62482
114105,62471
114118,62498
114126,62498
114173,62500
114178,62470
114237,62456
114248,62459
114257,62469
114268,62467
114277,62461
114288,62470
114297,62464
114348,62424
114356,62472
114368,62479
114377,62478
114388,62484
114397,62458
114408,62466
114417,62490
114428,62471
114437,62494
114448,62501
114457,62501
114468,62503
114477,62510
114488,62513
114497,62496
114508,62522
114517,62516
114528,62510
114537,62486
114548,62518
114557,62489
114568,62518
114577,62503
114588,62523
114597,62521
114608,62518
114617,62501
114628,62527
114637,62499
114648,62512
114657,62481
114668,62500
114677,62485
114688,62512
114697,62469
114798,62451
114849,62600
114861,62448
114868,62450
114921,62428
114928,62415
114938,62397
114948,62402
114958,62392
114968,62386
114978,62378
114988,62362
114998,62372
115008,62359
115018,62365
115028,62356
115038,62356
115048,62353
115058,62366
115068,62367
115078,62375
115088,62367
115099,62385
115150,62394
115158,62389
115168,62393
115178,62377
115188,62395
115198,62410
115208,62412
115218,62413
115228,62406
115238,62429
115248,62422
115258,62438
115268,62437
115278,62447
115288,62427
115339,62460
115341,62449
115348,62466
115359,62480
115369,62487
115379,62482
115388,62454
115398,62479
115408,62460
115449,62471
115458,62479
115468,62480
115478,62485
115488,62461
115498,62491
115509,62527
115611,62656
115619,62544
115665,62543
115670,62598
115722,62613
115772,62572
115779,62596
115789,62573
115800,62582
115810,62582
115819,62579
115830,62577
115840,62543
115850,62533
115859,62556
115870,62538
115880,62540
115890,62517
115937,62511
115950,62458
115960,62456
115969,62438
115979,62448
115990,62438
116000,62451
116010,62445
116019,62448
116030,62450
116040,62461
116050,62469
116059,62467
116070,62474
116080,62488
116090,62488
116099,62476
116110,62478
116120,62491
116130,62492
116139,62485
116150,62487
116160,62489
116170,62480
116179,62493
116190,62503
116200,62502
116210,62489
116219,62484
116230,62499
116240,62495
116250,62503
116259,62478
116270,62499
116325,62469
116331,62502
116424,62494
116430,62488
116484,62489
116489,62510
116501,62517
116510,62526
116521,62525
116531,62528
116540,62528
116550,62540
116560,62532
116570,62548
116581,62533
116591,62541
116601,62549
116611,62532
116620,62549
116630,62550
116640,62526
116650,62526
116661,62527
116671,62521
116681,62542
116691,62533
116702,62540
116751,62525
116761,62522
116770,62508
116780,62519
116790,62514
116800,62502
116810,62504
116821,62503
116831,62498
116841,62513
116850,62489
116861,62503
116871,62503
116881,62501
116891,62513
116900,62495
116910,62482
116920,62489
116930,62473
116941,62507
116951,62500
116961,62494
116971,62500
116980,62487
116990,62451
117042,62469
117096,62445
117139,62450
117151,62475
117207,62469
117215,62478
117222,62499
117231,62500
117240,62496
117250,62486
117261,62487
117271,62485
117281,62505
117291,62493
117302,62502
117311,62510
117321,62510
117331,62492
117342,62504
117351,62506
117361,62501
117371,62495
117382,62496
117391,62502
117401,62513
117411,62491
117422,62501
117431,62491
117441,62499
117451,62486
117462,62501
117471,62491
117481,62487
117491,62493
117542,62507
117552,62477
117561,62467
117571,62487
117582,62499
117591,62478
117601,62498
117611,62482
117622,62492
117631,62500
117641,62481
117651,62478
117662,62488
117671,62486
117681,62467
117691,62471
117701,62457
117711,62447
117721,62460
117774,62459
117820,62427
117833,62389
117885,62372
117891,62367
117902,62343
117955,62482
117962,62344
117972,62367
117982,62365
117992,62377
118002,62368
118012,62361
118022,62373
118032,62384
118042,62385
118052,62392
118062,62395
118072,62389
118082,62403
118092,62394
118102,62397
118112,62390
118122,62416
118132,62413
118142,62414
118152,62410
118162,62407
118172,62426
118182,62441
118192,62424
118202,62442
118212,62437
118222,62449
118232,62452
118242,62444
118252,62440
118262,62452
118272,62445
118282,62456
118292,62457
118344,62471
118353,62488
118362,62496
118372,62504
118382,62498
118392,62513
118402,62515
118453,62514
118462,62496
118513,62522
118523,62550
118566,62519
118574,62574
118583,62535
118634,62530
118642,62575
118652,62546
118662,62561
118672,62540
118682,62543
118692,62540
118747,62533
118754,62548
118763,62574
118772,62549
118782,62539
118792,62547
118804,62545
118813,62523
118823,62525
118834,62523
118843,62501
118854,62501
118863,62478
118874,62494
118883,62461
118894,62454
118903,62460
118914,62443
118923,62435
118934,62447
118943,62450
118954,62455
118963,62449
118974,62442
118983,62460
118994,62441
119004,62463
119013,62455
119023,62458
119034,62475
119043,62458
119054,62458
119063,62450
119074,62453
119083,62461
119094,62466
119149,62487
119153,62450
119197,62494
119204,62489
119213,62498
119265,62471
119274,62479
119334,62496
119345,62472
119393,62473
119404,62515
119413,62474
119423,62482
119434,62517
119443,62492
119454,62512
119463,62507
119474,62532
119483,62499
119494,62531
119544,62504
119556,62530
119563,62546
119574,62536
119584,62537
119594,62537
119605,62541
119614,62545
119625,62545
119634,62548
119645,62522
119654,62530
119664,62523
119674,62527
119685,62531
119694,62529
119704,62529
119714,62517
119725,62520
119734,62513
119744,62519
119754,62505
119765,62528
119774,62518
119784,62504
119794,62503
119805,62508
119814,62500
119824,62490
119834,62500
119845,62485
119854,62487
119864,62484
119874,62486
119885,62485
119939,62465
119946,62472
119954,62477
119965,62475
119975,62463
119984,62480
119994,62494
120004,62471
120015,62482
120024,62467
120034,62466
120044,62454
120079,62464
120081,62519
120084,62536
120094,62461
120104,62442
120114,62458
120124,62452
120134,62451
120145,62473
120155,62483
120164,62452
120174,62452
120185,62498
120240,62440
120282,62481
120297,62493
120307,62492
120356,62520
120405,62496
120407,62467
120416,62493
120424,62483
120435,62494
120445,62506
120455,62501
120466,62498
120475,62499
120485,62503
120495,62508
120505,62509
120515,62488
120525,62495
120535,62485
120546,62491
120555,62483
120565,62498
120575,62496
120585,62504
120595,62491
120605,62492
120615,62480
120626,62487
120635,62472
120645,62465
120655,62486
120665,62487
120675,62451
120685,62484
120695,62467
120748,62374
120755,62460
120766,62468
120775,62465
120786,62469
120795,62454
120805,62455
120815,62435
120825,62408
120835,62443
120845,62402
120855,62372
120865,62374
120875,62383
120885,62360
120895,62372
120906,62372
120915,62372
120979,62355
120988,62372
120996,62336
121051,62356
121055,62363
121115,62371
121165,62395
121178,62432
121230,62473
121237,62423
121246,62424
121257,62423
121266,62435
121277,62441
121286,62455
121297,62448
121306,62454
121316,62463
121327,62455
121336,62467
121346,62458
121357,62470
121366,62479
121377,62485
121386,62479
121396,62485
121407,62479
121416,62467
121426,62486
121437,62488
121446,62497
121457,62481
121466,62516
121476,62482
121487,62501
121496,62525
121551,62476
121556,62526
121566,62527
121576,62549
121586,62534
121597,62555
121606,62547
121617,62577
121626,62570
121636,62559
121646,62556
121656,62565
121707,62587
121716,62569
121727,62601
121736,62579
121788,62547
121798,62585
121807,62575
121858,62552
121917,62516
121927,62528
121982,62460
121988,62460
121997,62459
122008,62445
122017,62431
122028,62430
122037,62445
122048,62446
122057,62444
122068,62438
122077,62443
122088,62455
122097,62449
122108,62457
122117,62464
122128,62473
122137,62468
122148,62468
122157,62469
122167,62477
122178,62482
122187,62461
122198,62470
122207,62466
122218,62467
122227,62475
122237,62476
122248,62466
122257,62471
122268,62482
122277,62489
122288,62485
122297,62480
122348,62486
122357,62483
122367,62480
122377,62487
122388,62495
122397,62499
122408,62508
122417,62456
122468,62489
122478,62467
122487,62480
122538,62468
122588,62512
122637,62506
122650,62542
122657,62519
122667,62528
122678,62546
122687,62546
122698,62531
122752,62542
122757,62602
122767,62506
122778,62540
122788,62522
122798,62536
122808,62530
122818,62523
122828,62531
122838,62530
122848,62530
122858,62529
122868,62515
122878,62521
122888,62516
122898,62532
122908,62516
122918,62536
122928,62515
122938,62530
122948,62512
122958,62511
122968,62517
122978,62496
122988,62486
122998,62477
123008,62471
123018,62480
123028,62473
123038,62480
123048,62490
123058,62496
123068,62491
123078,62503
123088,62491
123098,62492
123151,62463
123198,62471
123200,62530
123208,62470
123260,62444
123305,62449
123312,62417
123319,62481
123369,62456
123378,62444
123388,62444
123398,62463
123408,62458
123418,62463
123428,62450
123438,62455
123448,62470
123458,62480
123468,62483
123478,62481
123488,62491
123499,62497
123550,62522
123559,62491
123569,62488
123579,62496
123590,62500
123600,62477
123609,62488
123619,62501
123630,62491
123640,62486
123650,62496
123659,62484
123670,62490
123680,62490
123690,62485
123699,62489
123710,62484
123720,62489
123730,62499
123739,62485
123750,62483
123760,62485
123770,62491
123779,62482
123790,62472
123800,62477
123810,62482
123819,62489
123830,62463
123840,62481
123850,62489
123859,62485
123869,62499
123976,62466
123981,62464
124031,62425
124040,62407
124093,62391
124099,62398
124110,62391
124119,62350
124130,62390
124139,62335
124150,62385
124160,62368
124170,62365
124179,62343
124190,62364
124200,62368
124210,62359
124219,62334
124230,62359
124240,62380
124250,62353
124259,62357
124270,62365
124280,62382
124290,62367
124341,62366
124351,62375
124361,62374
124370,62398
124381,62403
124391,62398
124401,62412
124411,62393
124420,62398
124430,62409
124440,62414
124450,62419
124461,62418
124471,62432
124481,62425
124491,62422
124500,62446
124510,62431
124520,62433
124530,62450
124541,62439
124551,62454
124561,62450
124571,62457
124580,62436
124590,62465
124641,62475
124651,62458
124661,62452
124671,62454
124680,62482
124690,62477
124702,62510
124711,62497
124721,62493
124731,62489
124741,62501
124750,62491
124791,62513
124801,62538
124810,62513
124820,62529
124831,62553
124840,62522
124851,62517
124861,62563
124870,62509
124958,62550
124971,62522
125022,62550
125031,62580
125041,62553
125091,62560
125102,62573
125151,62556
125161,62554
125171,62543
125181,62541
125191,62538
125201,62529
125211,62512
125222,62502
125231,62504
125241,62486
125251,62470
125262,62448
125271,62454
125281,62449
125291,62441
125302,62449
125311,62455
125321,62443
125331,62449
125342,62440
125351,62426
125361,62433
125371,62450
125382,62450
125391,62426
125401,62452
125411,62460
125422,62466
125431,62446
125441,62460
125451,62466
125462,62483
125471,62464
125481,62469
125491,62467
125552,62466
125563,62455
125572,62493
125582,62502
125591,62480
125643,62473
125692,62509
125701,62461
125753,62478
125803,62492
125812,62466
125821,62482
125831,62485
125841,62490
125851,62492
125862,62497
125872,62494
125882,62511
125892,62510
125941,62500
125943,62480
125952,62525
125963,62532
125973,62534
125982,62525
125992,62556
126002,62542
126012,62534
126022,62520
126032,62526
126043,62539
126052,62544
126062,62539
126072,62536
126082,62542
126092,62521
126102,62542
126113,62533
126122,62530
126132,62524
126142,62516
126152,62523
126162,62513
126172,62526
126182,62494
126192,62515
126202,62532
126212,62510
126222,62502
126232,62532
126242,62531
126252,62521
126262,62511
126272,62515
126282,62518
126292,62525
126349,62489
126355,62485
126404,62485
126413,62478
126464,62458
126506,62457
126514,62444
126522,62485
126532,62458
126542,62467
126552,62455
126563,62458
126572,62451
126582,62444
126592,62441
126602,62424
126612,62441
126623,62462
126632,62449
126642,62457
126652,62455
126663,62467
126672,62453
126682,62452
126692,62463
126741,62450
126753,62474
126764,62488
126773,62474
126783,62487
126794,62477
126803,62499
126814,62489
126823,62489
126834,62486
126843,62477
126854,62495
126863,62492
126874,62490
126883,62501
126894,62497
126903,62513
126914,62495
126923,62509
126934,62513
126943,62503
126954,62499
126963,62492
126974,62490
126983,62486
126994,62493
127003,62490
127014,62482
127065,62482
127073,62494
127123,62478
127177,62475
127183,62500
127232,62463
127234,62501
127243,62488
127253,62471
127263,62469
127274,62507
127283,62493
127294,62494
127303,62476
127314,62488
127323,62456
127333,62457
127343,62436
127354,62475
127363,62435
127374,62451
127383,62443
127394,62457
127403,62412
127414,62434
127423,62423
127434,62408
127443,62391
127454,62413
127464,62401
127474,62397
127483,62406
127494,62381
127545,62328
127555,62369
127564,62369
127574,62352
127585,62378
127594,62351
127604,62357
127614,62357
127625,62359
127634,62355
127645,62356
127654,62371
127664,62368
127674,62375
127685,62364
127694,62363
127704,62385
127714,62378
127724,62372
127734,62383
127744,62387
127754,62402
127806,62402
127814,62396
127867,62407
127914,62434
127916,62427
127925,62447
127937,62432
128032,62356
128036,62463
128046,62478
128096,62585
128105,62463
128114,62469
128124,62471
128134,62486
128145,62523
128154,62477
128165,62514
128174,62450
128184,62487
128194,62490
128205,62522
128214,62493
128224,62482
128234,62507
128245,62528
128254,62520
128264,62528
128274,62537
128285,62543
128294,62541
128351,62559
128356,62554
128365,62546
128375,62549
128386,62566
128395,62553
128405,62560
128415,62565
128425,62563
128436,62574
128445,62575
128455,62560
128466,62561
128475,62561
128485,62582
128495,62570
128505,62552
128515,62568
128525,62572
128535,62576
128546,62568
128607,62536
128615,62524
128626,62525
128669,62453
128676,62457
128726,62451
128787,62443
128796,62436
128806,62470
128815,62453
128825,62455
128835,62436
128845,62470
128855,62452
128865,62439
128875,62461
128885,62445
128895,62465
128906,62477
128915,62473
128925,62459
128935,62449
128945,62446
128955,62470
128965,62442
128976,62483
128985,62441
128995,62448
129005,62453
129015,62459
129025,62465
129035,62458
129045,62473
129055,62472
129065,62473
129076,62475
129085,62479
129096,62477
129148,62535
129156,62483
129166,62473
129176,62504
129186,62475
129197,62492
129206,62483
129217,62480
129226,62491
129236,62475
129246,62483
129256,62482
129266,62465
129316,62489
129326,62513
129335,62471
129347,62516
129357,62511
129366,62529
129377,62524
129387,62527
129396,62528
129407,62517
129460,62506
129467,62490
129477,62524
129539,62528
129547,62533
129602,62530
129608,62574
129619,62523
129669,62508
129676,62518
129686,62483
129696,62521
129706,62521
129717,62537
129726,62492
129737,62518
129746,62493
129756,62495
129767,62497
129776,62457
129786,62462
129797,62495
129806,62468
129817,62482
129826,62453
129836,62473
129847,62489
129856,62467
129867,62489
129876,62484
129887,62478
129898,62491
129948,62407
129959,62478
129966,62471
129978,62472
129987,62477
129998,62464
130007,62466
130018,62481
130027,62474
130038,62470
130047,62448
130058,62467
130067,62476
130078,62461
130087,62465
130098,62466
130107,62456
130118,62473
130127,62452
130138,62467
130147,62467
130158,62455
130167,62475
130178,62461
130231,62475
130237,62498
130290,62460
130338,62495
130350,62470
130402,62488
130409,62490
130418,62511
130472,62475
130480,62576
130487,62466
130498,62511
130507,62465
130518,62498
130527,62463
130538,62481
130547,62479
130558,62489
130567,62478
130578,62493
130587,62492
130598,62504
130607,62487
130618,62489
130628,62498
130638,62493
130648,62499
130658,62492
130668,62501
130678,62486
130688,62472
130699,62485
130750,62477
130758,62467
130768,62468
130778,62458
130788,62456
130798,62458
130808,62462
130818,62448
130828,62440
130838,62437
130848,62421
130858,62385
130868,62388
130878,62390
130888,62378
130898,62390
130908,62382
130918,62388
130928,62371
130938,62376
130948,62372
130958,62386
130968,62379
130978,62377
131032,62352
131085,62327
131089,62363
131098,62376
131150,62404
131201,62381
131208,62389
131261,62433
131309,62409
131320,62409
131328,62411
131339,62434
131350,62457
131360,62441
131370,62457
131379,62463
131389,62465
131400,62464
131410,62463
131419,62474
131430,62465
131440,62481
131450,62498
131459,62481
131470,62486
131480,62496
131490,62500
131551,62518
131560,62513
131569,62508
131579,62532
131590,62529
131600,62514
131610,62522
131619,62556
131630,62536
131640,62549
131650,62578
131659,62574
131670,62578
131680,62595
131690,62595
131699,62609
131710,62612
131720,62616
131730,62615
131739,62614
131750,62632
131760,62628
131819,62626
131869,62617
131922,62627
131930,62603
131981,62629
131991,62632
132001,62607
132009,62592
132019,62550
132030,62581
132040,62547
132049,62546
132061,62532
132071,62529
132081,62517
132091,62524
132100,62504
132110,62490
132120,62497
132130,62499
132141,62495
132151,62491
132161,62509
132171,62495
132180,62491
132190,62508
132200,62493
132210,62514
132221,62507
132231,62514
132241,62512
132251,62516
132260,62519
132270,62533
132280,62510
132290,62509
132345,62520
132351,62509
132362,62507
132371,62521
132381,62523
132391,62535
132401,62530
132411,62525
132420,62528
132430,62536
132440,62501
132450,62512
132461,62531
132471,62533
132481,62516
132491,62519
132537,62509
132545,62520
132597,62524
132601,62530
132652,62590
132664,62606
132714,62602
132721,62637
132764,62676
132771,62694
132781,62672
132791,62730
132802,62742
132811,62756
132821,62750
132831,62765
132841,62754
132851,62767
132862,62755
132871,62775
132881,62741
132891,62736
132902,62728
132911,62709
132921,62701
132931,62667
132942,62667
132951,62670
132961,62637
132971,62636
132982,62635
132991,62628
133001,62600
133011,62611
133022,62580
133031,62566
133041,62587
133051,62583
133062,62572
133071,62557
133081,62571
133091,62551
133146,62565
133152,62540
133162,62566
133171,62543
133181,62530
133191,62537
133201,62538
133211,62536
133261,62542
133316,62534
133360,62566
133371,62521
133381,62520
133391,62517
133401,62508
133411,62509
133421,62493
133431,62503
133441,62515
133451,62517
133462,62527
133472,62524
133482,62532
133492,62531
133547,62557
133553,62550
133563,62577
133572,62552
133582,62567
133592,62559
133602,62566
133612,62572
133622,62566
133632,62555
133642,62557
133652,62557
133662,62567
133672,62574
133682,62559
133692,62564
133702,62570
133712,62575
133722,62558
133732,62563
133742,62552
133752,62545
133763,62556
133772,62553
133782,62532
133792,62562
133802,62556
133812,62562
133822,62542
133832,62568
133842,62560
133852,62575
133862,62554
133906,62556
133914,62598
133923,62559
133933,62552
133942,62534
133952,62576
133963,62567
133972,62531
133982,62545
133993,62549
134002,62523
134012,62531
134048,62523
134053,62524
134062,62539
134072,62514
134082,62510
134093,62552
134102,62506
134114,62551
134122,62500
134132,62516
134143,62525
134152,62496
134163,62513
134217,62404
134223,62454
134270,62471
134284,62396
134333,62400
134343,62435
134397,62514
134404,62431
134453,62426
134464,62374
134473,62430
134484,62435
134493,62428
134503,62446
134514,62431
134523,62447
134534,62437
134543,62441
134554,62440
134563,62450
134574,62460
134583,62441
134594,62470
134603,62490
134614,62472
134623,62471
134634,62496
134643,62490
134654,62502
134663,62483
134674,62502
134683,62483
134694,62503
134745,62479
134756,62527
134765,62503
134773,62500
134783,62505
134793,62520
134804,62534
134813,62523
134823,62510
134834,62534
134843,62523
134854,62544
134863,62505
134874,62565
134883,62507
134894,62541
134903,62546
134914,62562
134923,62552
134934,62554
134944,62546
134954,62562
134965,62568
135016,62578
135063,62600
135076,62627
135084,62594
135139,62604
135144,62609
135200,62573
135206,62618
135215,62635
135225,62614
135235,62606
135244,62590
135254,62610
135264,62613
135274,62606
135285,62596
135294,62611
135304,62609
135314,62589
135325,62604
135334,62583
135344,62598
135354,62567
135365,62589
135374,62555
135384,62571
135394,62518
135405,62547
135414,62502
135424,62521
135434,62484
135445,62525
135454,62468
135464,62489
135474,62453
135485,62502
135494,62458
135545,62478
135556,62492
135566,62480
135575,62510
135584,62466
135595,62513
135604,62465
135614,62491
135625,62505
135634,62488
135645,62516
135654,62511
135664,62505
135674,62524
135685,62516
135694,62524
135706,62516
135715,62509
135770,62528
135776,62536
135785,62529
135836,62448
135847,62536
135897,62484
135946,62534
135958,62534
136007,62597
136017,62549
136026,62530
136036,62543
136045,62573
136055,62542
136066,62555
136075,62586
136085,62563
136095,62574
136105,62555
136115,62568
136125,62561
136135,62565
136146,62596
136155,62561
136165,62584
136175,62588
136185,62567
136195,62582
136205,62555
136215,62576
136226,62617
136235,62577
136245,62584
136255,62553
136265,62545
136275,62579
136285,62560
136295,62551
136351,62506
136356,62539
136367,62553
136376,62564
136386,62543
136395,62542
136406,62551
136415,62540
136425,62556
136436,62540
136446,62551
136456,62544
136466,62546
136477,62543
136486,62536
136497,62525
136506,62523
136516,62527
136567,62528
136578,62513
136625,62465
136680,62539
136686,62526
136734,62497
136746,62505
136801,62480
136806,62499
136817,62503
136827,62489
136836,62519
136846,62513
136856,62522
136866,62522
136876,62507
136887,62552
136896,62539
136906,62501
136917,62549
136926,62524
136937,62535
136946,62550
136956,62521
136967,62556
136976,62528
136986,62505
136997,62563
137006,62527
137017,62544
137026,62505
137036,62520
137046,62521
137056,62520
137066,62513
137077,62541
137086,62523
137097,62533
137147,62512
137156,62521
137167,62503
137220,62485
137227,62543
137237,62522
137288,62535
137297,62516
137351,62529
137440,62493
137448,62510
137457,62489
137468,62487
137477,62509
137488,62489
137497,62485
137548,62439
137558,62456
137567,62443
137578,62439
137587,62413
137598,62433
137607,62417
137618,62421
137627,62387
137638,62397
137647,62400
137658,62408
137667,62393
137678,62402
137687,62391
137698,62403
137707,62366
137718,62390
137727,62372
137738,62397
137747,62361
137758,62400
137767,62359
137778,62402
137787,62378
137798,62415
137807,62398
137818,62419
137827,62385
137838,62420
137847,62420
137858,62429
137868,62430
137878,62432
137888,62446
137899,62438
137950,62453
138001,62464
138008,62451
138019,62480
138073,62484
138077,62512
138130,62528
138138,62508
138148,62496
138158,62524
138168,62514
138178,62527
138188,62534
138198,62543
138208,62549
138218,62564
138228,62568
138238,62578
138248,62563
138258,62570
138268,62578
138278,62589
138288,62575
138299,62590
138349,62603
138358,62595
138368,62557
138380,62617
138388,62570
138398,62566
138408,62581
138418,62591
138429,62624
138439,62603
138449,62620
138481,62582
138489,62627
138499,62623
138509,62621
138519,62603
138528,62594
138539,62605
138548,62587
138558,62583
138569,62599
138579,62597
138589,62606
138600,62632
138609,62619
138619,62620
138629,62603
138690,62556
138700,62499
138749,62493
138842,62480
138849,62484
138859,62500
138910,62496
138920,62508
138930,62517
138939,62524
138950,62507
138960,62529
138970,62544
138979,62533
138990,62544
139000,62540
139010,62538
139019,62524
139030,62541
139040,62549
139050,62542
139059,62537
139070,62537
139080,62541
139090,62541
139136,62538
139143,62511
139149,62509
139160,62534
139170,62534
139179,62497
139190,62522
139200,62539
139210,62524
139219,62504
139230,62523
139240,62516
139250,62518
139259,62525
139270,62538
139280,62530
139290,62533
139301,62538
139311,62542
139321,62560
139331,62547
139340,62574
139350,62567
139360,62571
139370,62564
139381,62579
139391,62577
139401,62587
139411,62572
139460,62621
139511,62625
139521,62624
139572,62615
139580,62599
139631,62609
139640,62606
139650,62604
139661,62601
139671,62614
139681,62608
139691,62587
139700,62592
139710,62555
139720,62557
139730,62540
139741,62574
139751,62573
139761,62565
139771,62568
139780,62542
139790,62523
139800,62517
139810,62525
139821,62563
139830,62515
139840,62510
139850,62510
139861,62553
139871,62556
139881,62543
139891,62555
139934,62499
139941,62504
139950,62505
139960,62514
139970,62519
139981,62521
139991,62533
140001,62513
140011,62507
140022,62511
140031,62525
140041,62493
140051,62508
140062,62518
140071,62516
140081,62514
140091,62515
140102,62502
140111,62510
140121,62518
140131,62514
140162,62529
140195,62552
140203,62526
140213,62536
140245,62511
140252,62532
140262,62548
140271,62541
140281,62534
140291,62544
140325,62548
140331,62541
140341,62562
140351,62536
140361,62561
140371,62540
140382,62552
140391,62561
140401,62566
140411,62546
140422,62584
140431,62576
140441,62553
140451,62577
140492,62542
140501,62570
140511,62554
140521,62557
140531,62541
140542,62583
140551,62585
140561,62547
140571,62540
140582,62594
140591,62558
140601,62535
140611,62541
140622,62551
140631,62514
140641,62499
140651,62493
140661,62512
140671,62508
140681,62501
140691,62496
140702,62473
140733,62502
140743,62479
140752,62470
140793,62462
140824,62440
140832,62435
140857,62423
140859,62541
140863,62424
140880,62402
140883,62416
140893,62431
140917,62409
140919,62409
140921,62424
140932,62415
140942,62426
140952,62418
140962,62419
140972,62411
140982,62407
140992,62419
141002,62416
141012,62420
141022,62405
141032,62437
141042,62432
141052,62452
141062,62452
141072,62456
141082,62462
141092,62473
141124,62465
141133,62487
141142,62492
141152,62491
141162,62487
141172,62500
141182,62486
141192,62507
141202,62504
141212,62508
141222,62505
141232,62496
141242,62501
141252,62512
141262,62505
141272,62516
141282,62522
141292,62498
141302,62514
141312,62496
141322,62497
141332,62480
141342,62504
141352,62494
141362,62496
141372,62489
141382,62500
141392,62487
141402,62490
141412,62515
141444,62516
141473,62522
141504,62541
141534,62569
141543,62581
141554,62573
141563,62557
141574,62567
141583,62581
141594,62562
141603,62581
141614,62581
141623,62594
141634,62597
141643,62588
141654,62594
141663,62603
141674,62598
141683,62588
141694,62609
141703,62578
141714,62580
141723,62610
141734,62588
141743,62580
141754,62593
141764,62559
141774,62606
141783,62599
141794,62594
141803,62619
141814,62600
141823,62583
141833,62588
141844,62592
141853,62582
141863,62580
141874,62573
141883,62554
141894,62562
141925,62516
141933,62485
141943,62463
141954,62505
141963,62488
141974,62493
141983,62462
141994,62498
142003,62473
142035,62463
142058,62455
142060,62466
142064,62564
142096,62517
142103,62474
142114,62503
142123,62461
142134,62491
142143,62486
142153,62503
142164,62496
142173,62498
142183,62515
142194,62499
142205,62503
142214,62498
142225,62511
142234,62507
142245,62496
142254,62502
142264,62515
142274,62498
142284,62515
142294,62514
142324,62526
142334,62503
142344,62499
142355,62506
142364,62508
142374,62514
142385,62506
142394,62500
142405,62508
142414,62512
142425,62517
142434,62499
142445,62504
142454,62516
142464,62513
142474,62515
142485,62509
142494,62532
142504,62527
142514,62530
142525,62533
142534,62540
142544,62550
142555,62544
142564,62538
142574,62549
142585,62561
142594,62544
142627,62564
142649,62560
142652,62526
142654,62562
142664,62552
142675,62551
142685,62581
142695,62576
142706,62535
142714,62557
142725,62580
142734,62556
142744,62554
142754,62561
142765,62561
142805,62594
142814,62522
142825,62548
142835,62565
142845,62546
142855,62553
142865,62529
142874,62476
142886,62540
142894,62489
142946,62468
142954,62512
142965,62496
142975,62496
142986,62500
142995,62477
143005,62493
143015,62495
143026,62478
143035,62469
143045,62484
143055,62477
143065,62479
143075,62488
143085,62480
143095,62469
143126,62441
143136,62465
143146,62474
143155,62485
143165,62495
143175,62479
143185,62479
143195,62462
143205,62471
143215,62466
143225,62478
143235,62450
143245,62471
143255,62462
143265,62494
143275,62470
143285,62501
143295,62492
143306,62524
143315,62546
143325,62565
143335,62568
143346,62575
143355,62594
143365,62586
143375,62591
143385,62574
143396,62613
143405,62615
143415,62601
143426,62622
143435,62618
143445,62607
143455,62633
143487,62637
143495,62629
143547,62603
143570,62552
143572,62471
143577,62546
143601,62521
143603,62470
143606,62534
143615,62554
143626,62528
143635,62511
143645,62492
143655,62506
143666,62500
143675,62499
143686,62497
143695,62507
143707,62497
143716,62506
143726,62501
143736,62502
143746,62496
143757,62488
143766,62472
143777,62492
143786,62492
143796,62489
143807,62472
143816,62475
143826,62470
143837,62477
143846,62478
143857,62472
143866,62485
143876,62458
143887,62463
143896,62449
143927,62438
143937,62416
143946,62424
143956,62388
143967,62394
143976,62410
143986,62390
143997,62382
144006,62379
144017,62382
144026,62391
144036,62367
144047,62380
144056,62380
144066,62359
144077,62371
144086,62367
144097,62374
144106,62362
144116,62374
144148,62379
144157,62355
144188,62387
144200,62398
144229,62398
144237,62358
144247,62429
144256,62379
144266,62374
144277,62423
144286,62385
144296,62347
144327,62376
144337,62407
144346,62393
144356,62389
144367,62387
144376,62383
144387,62406
144396,62385
144407,62378
144418,62399
144427,62395
144438,62410
144447,62407
144458,62411
144467,62414
144478,62432
144487,62434
144498,62429
144507,62436
144518,62439
144527,62441
144538,62436
144547,62441
144558,62445
144567,62464
144578,62454
144587,62476
144598,62464
144607,62475
144618,62484
144627,62463
144638,62485
144647,62473
144658,62485
144667,62483
144677,62484
144688,62475
144697,62504
144728,62536
144737,62526
144767,62514
144778,62536
144788,62559
144818,62509
144828,62494
144853,62500
144855,62504
144858,62534
144868,62504
144879,62503
144896,62512
144899,62525
144907,62493
144918,62526
144927,62512
144938,62497
144947,62468
144958,62511
144967,62454
144978,62474
144987,62431
144998,62450
145007,62399
145017,62395
145028,62414
145037,62384
145048,62406
145057,62404
145068,62395
145077,62393
145088,62408
145099,62404
145127,62398
145138,62428
145148,62419
145158,62433
145168,62434
145178,62423
145188,62420
145198,62433
145208,62418
145218,62418
145228,62423
145238,62438
145248,62434
145258,62439
145268,62452
145278,62440
145288,62434
145298,62445
145308,62452
145318,62478
145328,62423
145338,62443
145348,62429
145358,62421
145368,62405
145378,62414
145388,62390
145398,62395
145431,62394
145439,62411
145470,62394
145480,62402
145510,62414
145555,62439
145559,62425
145561,62453
145569,62438
145578,62435
145588,62450
145598,62458
145608,62440
145618,62450
145628,62446
145638,62442
145648,62462
145658,62462
145668,62465
145678,62459
145688,62447
145698,62445
145708,62452
145718,62438
145728,62441
145738,62440
145748,62439
145758,62430
145768,62426
145778,62421
145788,62422
145798,62418
145808,62438
145819,62440
145828,62446
145838,62453
145848,62438
145859,62447
145870,62433
145880,62447
145890,62432
145919,62430
145921,62407
145929,62398
145939,62424
145950,62425
145960,62415
145970,62410
145979,62400
145990,62412
146000,62403
146010,62422
146019,62426
146030,62405
146040,62405
146050,62413
146059,62415
146087,62423
146100,62388
146110,62397
146140,62465
146170,62368
146179,62399
146190,62421
146200,62424
146210,62425
146219,62442
146230,62467
146240,62460
146250,62479
146259,62458
146270,62449
146280,62449
146290,62462
146301,62462
146329,62411
146339,62364
146349,62324
146359,62373
146370,62373
146379,62367
146390,62393
146400,62392
146410,62427
146419,62358
146430,62390
146440,62374
146450,62425
146459,62423
146470,62483
146480,62487
146490,62460
146499,62432
146510,62439
146520,62442
146530,62437
146539,62446
146550,62448
146560,62462
146570,62462
146581,62461
146591,62407
146601,62085
146611,62481
146620,62488
146630,62409
146640,62407
146650,62423
146661,62435
146671,62448
146703,62428
146712,62420
146785,62374
146791,62400
146843,62393
146871,62372
146882,62355
146891,62354
146901,62339
146911,62331
146920,62338
146931,62327
146940,62332
146951,62319
146960,62313
146971,62311
147010,62329
147020,62325
147031,62409
147041,62346
147050,61933
147061,61431
147070,61294
147080,61342
147092,61250
147101,60938
147111,60493
147122,60131
147152,59012
147161,58879
147171,58984
147181,59180
147191,59107
147200,59237
147210,59192
147221,59509
147231,59643
147241,59612
147251,59593
147260,59579
147270,59491
147280,59581
147290,59599
147301,59641
147311,59853
147321,59940
147331,60015
147342,60169
147351,60373
147361,60564
147371,60527
147382,60984
147391,60655
147401,60639
147411,61256
147422,62310
147431,62398
147441,62314
147451,61884
147462,61762
147471,61469
147481,61656
147491,61584
147524,59237
147532,60309
147541,60260
147551,59753
147561,59369
147571,59028
147582,59109
147591,59393
147601,59286
147611,59374
147622,59420
147652,59596
147683,59605
147713,59525
147722,59499
147732,59528
147741,59498
147751,59491
147761,59514
147771,59503
147782,59547
147791,59567
147801,59563
147811,59563
147822,59590
147831,59537
147841,59520
147851,59510
147862,59534
147871,59521
147881,59477
147891,59478
147918,59494
147919,59470
147923,59445
147932,59456
147941,59477
147951,59427
147961,59403
147971,59389
147982,59391
147991,59395
148001,59380
148011,59376
148022,59417
148031,59411
148041,59433
148051,59451
148062,59470
148072,59466
148082,59476
148092,59457
148101,59457
148111,59455
148122,59444
148132,59427
148142,59440
148152,59436
148162,59423
148172,59409
148182,59407
148192,59390
148202,59388
148212,59400
148222,59408
148254,59417
148278,59411
148280,59414
148284,59403
148294,59406
148303,59401
148335,59395
148344,59399
148380,59451
148384,59445
148392,59440
148402,59416
148412,59446
148422,59500
148432,59528
148442,59509
148452,59556
148462,59679
148472,59832
148482,59992
148492,60230
148502,60454
148512,60694
148522,61089
148532,61144
148542,60720
148552,60856
148562,61262
148572,60808
148582,60942
148592,62397
148602,62323
148612,62264
148622,62301
148633,62274
148642,62224
148652,62298
148662,62288
148672,62308
148682,62277
148692,62257
148722,62273
148733,62295
148742,62254
148752,62242
148762,62240
148772,62228
148782,62234
148792,62238
148802,62234
148812,62239
148822,62248
148832,62234
148842,62251
148852,62260
148863,62332
148872,62347
148884,62146
148914,61703
148938,61623
148942,61301
148945,60981
148955,60634
148982,59717
149014,59128
149023,59186
149034,59022
149043,59165
149054,59299
149063,59423
149074,59625
149083,59609
149094,59585
149119,59573
149123,59561
149127,59555
149133,59542
149143,59545
149154,59545
149163,59533
149174,59526
149183,59549
149194,59542
149203,59560
149214,59558
149223,59554
149233,59548
149244,59575
149253,59557
149263,59596
149274,59587
149283,59580
149294,59586
149303,59581
149314,59594
149323,59585
149334,59597
149343,59574
149354,59587
149363,59579
149374,59602
149383,59580
149394,59611
149403,59595
149414,59613
149423,59576
149434,59610
149443,59597
149454,59607
149463,59588
149474,59623
149483,59579
149493,59548
149525,59638
149557,59635
149564,59607
149596,59661
149619,59592
149621,59704
149624,59838
149634,59850
149643,59908
149654,59986
149664,60067
149674,60174
149685,60298
149694,60466
149705,60678
149714,60916
149724,61160
149734,60979
149745,61629
149754,61465
149764,61428
149774,61679
149785,62186
149794,62198
149804,61940
149814,61869
149825,61849
149834,61705
149844,61641
149854,61631
149865,61618
149874,61648
149884,61636
149894,61654
149926,61660
149935,61676
149944,61638
149955,61646
149964,61644
149974,61668
149984,61666
149994,61663
150005,61661
150014,61672
150025,61691
150034,61685
150044,61670
150054,61677
150065,61689
150074,61686
150084,61698
150094,61678
150104,61697
150114,61684
150125,61730
150150,61727
150152,61703
150155,61750
150165,61693
150183,61716
150186,61714
150211,61693
150214,61724
150217,61717
150225,61730
150234,61748
150244,61747
150254,61728
150264,61739
150274,61750
150284,61741
150294,61759
150325,61746
150335,61753
150345,61777
150354,61762
150364,61762
150374,61767
150385,61783
150394,61773
150404,61791
150414,61798
150425,61814
150434,61779
150444,61810
150455,61822
150465,61819
150476,61819
150485,61818
150495,61813
150506,61822
150515,61827
150525,61842
150535,61826
150545,61807
150556,61807
150565,61821
150575,61830
150586,61804
150595,61811
150605,61806
150615,61794
150625,61789
150636,61775
150645,61774
150655,61764
150666,61745
150675,61750
150685,61735
150695,61720
150727,61691
150757,61678
150765,61714
150799,61693
150806,61724
150838,61721
150845,61722
150855,61727
150866,61729
150875,61737
150885,61733
150895,61722
150905,61707
150915,61750
150926,61774
150935,61736
150945,61701
150956,61767
150965,61755
150975,61753
150985,61735
150996,61786
151005,61763
151015,61745
151026,61759
151035,61758
151045,61736
151055,61746
151065,61725
151076,61773
151085,61744
151095,61759
151128,61764
151137,61734
151146,61747
151155,61725
151165,61739
151175,61739
151185,61770
151196,61759
151205,61762
151216,61782
151226,61781
151235,61791
151246,61795
151257,61800
151266,61804
151276,61790
151287,61804
151296,61806
151306,61800
151317,61824
151326,61793
151337,61803
151346,61778
151377,61825
151387,61791
151417,61780
151427,61787
151436,61794
151446,61786
151456,61790
151466,61787
151476,61781
151486,61770
151496,61780
151507,61774
151516,61764
151526,61762
151566,61774
151577,61736
151588,61725
151596,61754
151607,61756
151617,61748
151626,61757
151638,61734
151647,61747
151657,61749
151667,61751
151699,61735
151728,61745
151755,61752
151758,61787
151767,61733
151776,61741
151787,61771
151796,61733
151806,61746
151816,61747
151826,61733
151837,61752
151846,61732
151857,61753
151866,61718
151876,61736
151887,61758
151896,61713
151928,61729
151938,61780
151946,61721
151957,61769
151966,61731
151977,61753
151986,61736
151996,61767
152007,61754
152017,61759
152026,61751
152037,61765
152048,61775
152057,61754
152068,61775
152077,61769
152087,61753
152098,61773
152107,61766
152118,61773
152127,61758
152138,61763
152147,61753
152158,61756
152167,61766
152178,61781
152187,61762
152198,61751
152207,61757
152218,61757
152227,61755
152238,61747
152247,61760
152258,61762
152288,61771
152296,61769
152308,61756
152355,61733
152368,61689
152379,61717
152387,61679
152417,61670
152427,61679
152438,61689
152447,61686
152458,61686
152467,61635
152478,61676
152487,61651
152498,61650
152507,61643
152518,61659
152527,61690
152538,61686
152547,61658
152558,61764
152567,61797
152578,61818
152587,61895
152597,61889
152608,61894
152617,61838
152628,61878
152637,61824
152648,61842
152657,61850
152668,61869
152677,61865
152688,61897
152697,61835
152729,61889
152738,61853
152748,61884
152757,61896
152768,61898
152778,61898
152788,61900
152798,61936
152808,61944
152818,61943
152828,61975
152838,61994
152848,62035
152858,62013
152868,61999
152878,61971
152888,61978
152898,61798
152908,61779
152940,61892
152949,61863
152958,61834
152991,61822
153000,61848
153029,61861
153059,61841
153068,61861
153078,61863
153088,61856
153099,61887
153130,61891
153138,61892
153148,61884
153158,61910
153168,61883
153178,61900
153188,61905
153198,61893
153208,61903
153218,61920
153228,61902
153238,61879
153248,61892
153258,61872
153268,61865
153278,61855
153288,61842
153298,61839
153308,61838
153318,61825
153328,61802
153338,61794
153348,61779
153358,61784
153368,61771
153378,61772
153388,61756
153398,61779
153408,61775
153418,61775
153428,61776
153438,61780
153448,61780
153458,61774
153468,61780
153478,61798
153488,61760
153499,61769
153530,61808
153540,61833
153548,61801
153558,61796
153589,61798
153600,61814
153609,61820
153640,61849
153669,61808
153679,61802
153689,61827
153699,61812
153710,61799
153720,61809
153730,61816
153739,61808
153750,61816
153760,61807
153770,61815
153779,61832
153790,61825
153800,61822
153810,61832
153819,61843
153830,61856
153840,61857
153850,61847
153859,61842
153870,61847
153880,61833
153890,61848
153901,61844
153932,61868
153940,61869
153950,61871
153960,61875
153970,61870
153980,61866
153990,61859
154000,61874
154010,61870
154019,61863
154030,61875
154040,61871
154050,61842
154059,61840
154070,61858
154080,61857
154090,61856
154099,61833
154110,61851
154120,61828
154130,61849
154139,61828
154150,61843
154160,61841
154170,61837
154205,61805
154211,61797
154221,61809
154250,61792
154278,61777
154292,61805
154300,61760
154330,61719
154339,61808
154350,61800
154359,61795
154370,61785
154380,61775
154390,61785
154400,61793
154410,61781
154421,61786
154431,61785
154441,61785
154451,61783
154460,61785
154470,61806
154480,61803
154490,61812
154501,61803
154511,61814
154521,61818
154531,61812
154540,61817
154550,61821
154560,61826
154570,61817
154581,61831
154591,61821
154601,61828
154611,61817
154620,61806
154630,61823
154640,61818
154650,61824
154661,61811
154671,61798
154680,61815
154690,61822
154719,61806
154731,61806
154741,61807
154750,61813
154760,61813
154770,61811
154780,61814
154790,61792
154819,61795
154830,61772
154861,61818
154863,61788
154890,61814
154892,61790
154904,61755
154933,61773
154943,61845
154951,61750
154960,61740
154970,61718
154981,61759
154991,61752
155001,61734
155011,61732
155020,61695
155030,61680
155040,61669
155050,61658
155061,61692
155071,61692
155081,61695
155090,61681
155120,61686
155123,61811
155133,61692
155142,61719
155151,61714
155161,61711
155171,61707
155182,61713
155191,61725
155201,61712
155211,61720
155222,61727
155231,61721
155241,61737
155251,61742
155262,61738
155271,61740
155281,61751
155291,61753
155302,61746
155311,61746
155321,61760
155331,61773
155341,61775
155351,61779
155361,61784
155371,61777
155382,61781
155391,61797
155401,61802
155411,61808
155422,61795
155431,61786
155441,61810
155451,61805
155482,61817
155514,61848
155522,61827
155552,61833
155562,61850
155590,61878
155603,61851
155632,61858
155635,61746
155641,61858
155651,61860
155661,61883
155671,61855
155681,61874
155691,61865
155702,61905
155711,61894
155721,61873
155731,61858
155742,61906
155751,61895
155761,61876
155771,61859
155782,61906
155791,61873
155801,61844
155811,61832
155822,61848
155831,61827
155841,61807
155851,61794
155862,61812
155871,61781
155881,61769
155891,61775
155902,61747
155933,61779
155942,61739
155952,61783
155962,61798
155972,61781
155983,61764
155991,61785
156002,61773
156013,61793
156023,61804
156033,61802
156082,61795
156092,61799
156102,61829
156112,61821
156123,61801
156132,61796
156143,61803
156152,61792
156162,61833
156173,61820
156183,61809
156193,61815
156222,61794
156253,61811
156285,61789
156293,61827
156302,61817
156332,61835
156360,61829
156373,61849
156383,61863
156392,61851
156402,61878
156412,61882
156422,61851
156432,61851
156442,61851
156452,61866
156462,61858
156472,61856
156482,61845
156492,61863
156502,61856
156512,61860
156522,61836
156532,61836
156542,61865
156552,61832
156562,61830
156572,61810
156582,61829
156592,61812
156602,61799
156612,61798
156622,61812
156632,61805
156642,61805
156652,61813
156663,61812
156672,61812
156682,61812
156694,61808
156703,61825
156714,61802
156723,61811
156734,61810
156761,61802
156774,61824
156783,61790
156794,61782
156803,61789
156814,61795
156823,61785
156855,61829
156881,61778
156895,61788
156904,61767
156956,61792
156958,61812
156966,61792
156974,61785
156983,61788
156994,61781
157003,61812
157014,61809
157024,61818
157033,61813
157044,61828
157053,61803
157063,61833
157074,61830
157083,61837
157093,61815
157103,61831
157114,61829
157123,61829
157134,61843
157162,61808
157174,61807
157184,61804
157193,61805
157204,61841
157213,61796
157223,61808
157234,61828
157243,61829
157254,61829
157263,61810
157274,61841
157283,61796
157294,61820
157303,61799
157314,61811
157323,61791
157334,61805
157343,61781
157354,61808
157363,61771
157374,61794
157383,61743
157394,61777
157403,61751
157414,61762
157423,61755
157434,61753
157443,61740
157454,61729
157464,61736
157495,61733
157503,61716
157552,61686
157565,61730
157599,61656
157604,61690
157615,61700
157624,61711
157634,61703
157645,61708
157654,61697
157664,61715
157674,61717
157685,61732
157694,61723
157704,61738
157714,61743
157725,61732
157734,61728
157745,61733
157754,61748
157765,61730
157774,61759
157784,61760
157794,61766
157805,61764
157814,61763
157824,61786
157834,61771
157845,61794
157854,61779
157864,61806
157874,61786
157885,61815
157894,61794
157904,61814
157914,61795
157925,61848
157934,61803
157966,61811
157974,61824
157984,61855
157994,61842
158004,61827
158014,61847
158025,61880
158034,61865
158044,61845
158054,61861
158065,61894
158095,61859
158126,61879
158157,61771
158166,61898
158174,61880
158184,61865
158195,61887
158204,61880
158215,61886
158225,61878
158234,61890
158245,61867
158255,61868
158266,61868
158275,61855
158285,61836
158295,61817
158305,61807
158315,61792
158325,61785
158335,61780
158367,61771
158375,61787
158385,61760
158395,61766
158405,61780
158415,61772
158426,61789
158435,61794
158445,61800
158455,61800
158465,61792
158475,61789
158485,61798
158495,61793
158506,61779
158515,61795
158525,61784
158535,61796
158545,61788
158555,61797
158565,61800
158575,61797
158586,61795
158595,61817
158605,61810
158615,61819
158625,61797
158635,61808
158645,61775
158655,61811
158666,61815
158699,61763
158706,61807
158738,61863
158747,61829
158776,61821
158786,61814
158818,61857
158827,61854
158835,61841
158845,61846
158855,61835
158866,61868
158875,61836
158885,61824
158895,61835
158905,61835
158915,61816
158925,61828
158935,61837
158946,61847
158955,61853
158966,61838
158975,61837
158985,61843
158996,61840
159005,61838
159016,61840
159026,61821
159037,61825
159046,61832
159057,61827
159066,61826
159076,61823
159087,61796
159096,61812
159106,61815
159117,61790
159126,61808
159137,61805
159168,61793
159176,61822
159187,61802
159196,61800
159206,61794
159216,61800
159226,61796
159236,61806
159246,61784
159256,61779
159288,61790
159297,61768
159306,61780
159316,61753
159327,61791
159359,61825
159366,61790
159400,61767
159407,61807
159439,61791
159448,61815
159475,61863
159486,61832
159496,61818
159506,61820
159517,61840
159526,61816
159537,61835
159567,61793
159577,61827
159587,61799
159596,61800
159606,61803
159617,61826
159626,61780
159636,61780
159646,61803
159656,61790
159666,61785
159677,61803
159686,61780
159697,61801
159706,61781
159716,61783
159727,61801
159736,61798
159747,61796
159756,61799
159767,61804
159778,61790
159787,61795
159798,61777
159807,61784
159818,61768
159827,61773
159838,61758
159847,61741
159858,61757
159867,61736
159878,61734
159887,61729
159898,61716
159907,61710
159918,61711
159927,61701
159938,61700
159970,61712
159978,61706
160011,61708
160019,61711
160027,61706
160039,61717
160047,61718
160057,61708
160067,61719
160077,61732
160087,61741
160099,61716
160107,61750
160118,61710
160128,61735
160177,61771
160188,61787
160198,61791
160208,61785
160217,61777
160227,61788
160237,61789
160247,61793
160258,61807
160268,61815
160278,61832
160287,61823
160318,61789
160327,61797
160362,61799
160369,61829
160399,61866
160408,61837
160417,61819
160427,61826
160438,61860
160447,61825
160458,61856
160467,61840
160478,61868
160487,61855
160498,61873
160507,61877
160518,61877
160528,61875
160537,61871
160548,61875
160558,61884
160568,61886
160578,61876
160588,61884
160598,61876
160608,61867
160618,61894
160628,61874
160638,61864
160648,61863
160658,61861
160668,61853
160678,61850
160688,61835
160698,61828
160708,61809
160718,61794
160728,61811
160739,61786
160769,61777
160778,61786
160788,61787
160798,61765
160808,61768
160818,61772
160828,61783
160838,61783
160848,61784
160858,61795
160868,61785
160900,61789
160910,61818
160941,61812
160950,61797
160960,61803
160990,61788
160998,61811
161008,61815
161018,61812
161028,61807
161038,61811
161048,61814
161058,61813
161068,61798
161078,61826
161088,61820
161098,61812
161108,61814
161118,61812
161128,61820
161139,61796
161170,61860
161181,61848
161189,61815
161198,61830
161208,61812
161218,61832
161228,61802
161238,61825
161248,61809
161258,61851
161268,61841
161278,61861
161288,61855
161299,61857
161310,61849
161320,61855
161330,61854
161339,61848
161350,61850
161360,61850
161370,61844
161379,61844
161390,61842
161400,61841
161410,61836
161419,61838
161430,61833
161440,61838
161450,61825
161459,61821
161470,61818
161480,61809
161490,61819
161499,61831
161532,61810
161541,61813
161550,61803
161582,61796
161591,61788
161621,61790
161630,61786
161662,61810
161669,61814
161700,61771
161710,61786
161719,61800
161730,61816
161739,61812
161750,61825
161760,61810
161770,61801
161779,61813
161790,61828
161800,61826
161810,61839
161819,61817
161830,61834
161840,61822
161850,61844
161859,61820
161870,61847
161880,61844
161890,61835
161899,61819
161910,61852
161920,61844
161930,61835
161941,61839
161971,61808
161979,61813
161991,61815
162000,61821
162010,61834
162019,61812
162030,61805
162040,61814
162050,61821
162059,61815
162070,61807
162080,61818
162090,61804
162101,61816
162111,61811
162121,61808
162131,61804
162140,61777
162150,61799
162160,61803
162170,61794
162181,61790
162191,61789
162201,61774
162211,61785
162244,61741
162252,61758
162261,61735
162293,61724
162362,61696
162371,61684
162413,61698
162421,61705
162431,61698
162440,61692
162450,61710
162461,61726
162471,61734
162480,61723
162490,61727
162501,61745
162511,61757
162521,61769
162531,61754
162540,61757
162550,61730
162560,61736
162570,61746
162581,61760
162591,61777
162601,61775
162611,61788
162620,61786
162630,61748
162640,61762
162650,61766
162661,61797
162671,61830
162680,61766
162690,61774
162701,61817
162711,61819
162721,61813
162731,61811
162773,61841
162783,61835
162791,61856
162800,61814
162810,61835
162820,61838
162830,61855
162840,61857
162850,61857
162861,61840
162871,61855
162912,61795
162921,61884
162951,61898
162982,61877
162991,61884
163022,61876
163031,61859
163042,61871
163051,61884
163062,61882
163071,61875
163081,61855
163091,61841
163102,61826
163111,61815
163121,61804
163131,61790
163164,61789
163172,61778
163182,61784
163192,61779
163201,61767
163211,61762
163221,61774
163231,61786
163241,61769
163251,61788
163261,61813
163271,61790
163281,61783
163291,61796
163302,61819
163311,61806
163321,61793
163331,61803
163342,61814
163351,61793
163361,61776
163371,61782
163382,61798
163391,61792
163401,61793
163411,61770
163422,61821
163431,61807
163441,61785
163451,61780
163462,61800
163471,61800
163481,61772
163491,61771
163502,61810
163511,61794
163521,61778
163531,61774
163563,61818
163573,61845
163601,61796
163604,61814
163612,61810
163641,61831
163652,61827
163692,61845
163721,61867
163732,61851
163742,61849
163752,61848
163762,61838
163772,61842
163782,61847
163792,61839
163802,61871
163812,61858
163822,61845
163832,61842
163842,61828
163852,61834
163862,61828
163872,61814
163882,61827
163892,61817
163902,61794
163912,61827
163922,61815
163932,61814
163963,61829
163973,61815
163982,61792
163993,61821
164002,61818
164012,61815
164022,61787
164032,61817
164042,61824
164052,61808
164062,61815
164072,61799
164082,61804
164092,61816
164102,61800
164112,61789
164122,61797
164132,61792
164142,61792
164152,61788
164162,61802
164172,61787
164182,61777
164192,61775
164202,61785
164212,61776
164222,61784
164256,61779
164282,61784
164295,61822
164303,61856
164333,61811
164343,61798
164353,61839
164363,61810
164372,61796
164383,61817
164393,61829
164402,61833
164412,61814
164422,61828
164432,61836
164443,61805
164495,61794
164503,61826
164515,61804
164524,61818
164533,61809
164543,61814
164553,61813
164564,61793
164574,61803
164584,61810
164593,61808
164604,61794
164636,61776
164646,61790
164653,61816
164663,61763
164674,61759
164683,61763
164694,61772
164703,61749
164714,61747
164723,61747
164734,61733
164774,61701
164784,61714
164794,61675
164803,61718
164814,61715
164823,61709
164834,61705
164843,61712
164854,61720
164863,61698
164874,61729
164883,61708
164894,61731
164903,61713
164914,61738
164923,61726
164934,61731
164943,61733
164954,61758
164963,61714
164974,61763
164983,61747
164994,61762
165003,61718
165014,61766
165023,61726
165034,61765
165043,61733
165054,61748
165063,61752
165074,61779
165083,61731
165094,61775
165103,61749
165135,61814
165164,61768
165176,61799
165206,61806
165209,61729
165214,61817
165226,61818
165236,61813
165276,61833
165284,61841
165294,61850
165305,61848
165314,61849
165324,61847
165334,61873
165345,61864
165354,61860
165364,61847
165374,61858
165407,61829
165414,61873
165424,61863
165434,61883
165445,61858
165454,61871
165464,61874
165474,61875
165485,61883
165494,61871
165505,61882
165514,61878
165525,61885
165534,61868
165575,61843
165586,61841
165595,61851
165604,61832
165614,61813
165624,61819
165635,61820
165644,61767
165654,61790
165665,61782
165674,61752
165685,61791
165694,61735
165704,61770
165714,61743
165725,61795
165734,61740
165744,61777
165754,61750
165765,61813
165774,61764
165816,61801
165845,61771
165858,61790
165887,61812
165918,61800
165924,61805
165934,61746
165975,61779
165985,61801
165995,61807
166005,61814
166015,61801
166025,61808
166035,61823
166045,61804
166055,61822
166066,61802
166075,61813
166085,61818
166095,61812
166105,61814
166115,61815
166125,61835
166135,61843
166146,61827
166155,61841
166165,61851
166175,61839
166185,61830
166196,61851
166205,61831
166215,61842
166226,61842
166235,61839
166245,61827
166255,61847
166265,61848
166275,61846
166285,61835
166295,61843
166306,61855
166315,61857
166326,61844
166335,61838
166368,61839
166375,61851
166385,61822
166395,61814
166405,61842
166415,61833
166426,61854
166467,61800
166537,61791
166545,61787
166556,61826
166565,61785
166575,61797
166585,61790
166595,61765
166605,61792
166615,61758
166625,61772
166635,61783
166645,61773
166656,61787
166665,61786
166675,61784
166685,61789
166695,61772
166706,61789
166715,61776
166726,61808
166735,61783
166770,61796
166777,61782
166787,61857
166796,61796
166806,61796
166817,61813
166826,61798
166836,61818
166847,61822
166856,61822
166866,61821
166877,61824
166886,61809
166897,61823
166906,61815
166916,61824
166927,61821
166936,61828
166946,61815
166957,61816
166966,61833
166977,61824
166986,61811
166996,61808
167007,61823
167016,61805
167026,61811
167037,61810
167078,61822
167107,61807
167110,61782
167116,61808
167149,61765
167157,61806
167166,61803
167227,61792
167237,61784
167247,61790
167257,61786
167266,61751
167277,61780
167286,61763
167297,61764
167306,61741
167316,61740
167327,61746
167336,61713
167346,61695
167357,61746
167366,61693
167377,61741
167386,61692
167396,61712
167407,61724
167417,61697
167426,61666
167436,61675
167447,61700
167456,61672
167466,61693
167477,61702
167486,61692
167497,61724
167506,61708
167517,61714
167526,61716
167537,61735
167568,61732
167577,61727
167587,61705
167597,61754
167608,61752
167617,61751
167628,61742
167637,61760
167648,61754
167657,61764
167668,61773
167677,61767
167688,61766
167697,61763
167708,61778
167717,61781
167728,61766
167737,61793
167779,61796
167820,61816
167849,61830
167851,61714
167857,61845
167867,61824
167877,61835
167888,61836
167897,61830
167908,61841
167917,61857
167928,61851
167937,61848
167970,61900
167978,61851
167988,61849
167998,61887
168007,61897
168017,61895
168028,61898
168037,61884
168048,61897
168057,61859
168068,61907
168077,61873
168088,61905
168097,61861
168108,61910
168117,61900
168128,61903
168137,61854
168148,61895
168157,61865
168168,61903
168177,61839
168188,61882
168197,61842
168208,61846
168217,61806
168228,61821
168237,61785
168248,61808
168257,61768
168268,61789
168277,61767
168288,61769
168297,61762
168308,61770
168317,61780
168328,61762
168339,61772
168367,61765
168379,61787
168389,61791
168421,61785
168428,61794
168470,61797
168510,61821
168517,61774
168552,61749
168558,61788
168570,61806
168578,61794
168588,61800
168598,61788
168608,61784
168619,61813
168628,61808
168638,61770
168648,61791
168659,61804
168669,61793
168719,61803
168729,61835
168740,61793
168748,61836
168758,61812
168769,61852
168779,61838
168788,61830
168798,61820
168808,61834
168818,61847
168829,61836
168839,61877
168869,61840
168879,61833
168888,61829
168899,61877
168908,61850
168918,61847
168928,61847
168938,61825
168948,61838
168958,61819
168968,61828
168978,61810
168988,61816
168998,61812
169008,61809
169018,61797
169028,61811
169038,61833
169048,61801
169058,61817
169068,61827
169078,61820
169088,61830
169099,61830
169110,61817
169120,61819
169130,61822
169139,61823
169171,61818
169178,61814
169220,61789
169230,61799
169239,61804
169250,61794
169260,61801
169270,61802
169280,61796
169290,61792
169299,61793
169310,61795
169320,61795
169330,61796
169339,61775
169370,61848
169383,61777
169391,61800
169430,61807
169441,61802
169480,61812
169489,61820
169499,61824
169509,61844
169520,61830
169530,61836
169541,61830
169572,61832
169579,61791
169590,61847
169600,61838
169610,61839
169619,61815
169630,61848
169640,61841
169650,61850
169659,61825
169670,61838
169680,61853
169690,61849
169699,61793
169710,61829
169720,61830
169730,61815
169739,61798
169750,61812
169760,61799
169770,61806
169779,61763
169790,61806
169800,61798
169810,61796
169819,61802
169830,61793
169840,61796
169850,61787
169859,61783
169870,61785
169880,61778
169890,61786
169901,61779
169911,61772
169921,61769
169931,61762
169940,61768
169972,61711
169981,61735
170015,61712
170017,61853
170023,61702
170030,61693
170042,61696
170074,61718
170081,61687
170120,61707
170153,61691
170160,61720
170170,61712
170180,61705
170190,61713
170200,61729
170210,61723
170221,61746
170231,61747
170241,61750
170251,61746
170260,61751
170270,61743
170280,61738
170290,61745
170301,61777
170311,61784
170321,61767
170331,61791
170366,61774
170372,61796
170380,61783
170390,61785
170400,61767
170410,61759
170421,61809
170431,61820
170441,61796
170451,61843
170461,61829
170471,61818
170481,61818
170491,61834
170500,61790
170510,61791
170520,61799
170530,61804
170541,61819
170551,61836
170561,61848
170571,61845
170580,61842
170590,61848
170600,61846
170610,61861
170621,61860
170631,61865
170641,61871
170651,61849
170662,61864
170671,61873
170702,61884
170712,61882
170721,61892
170762,61883
170803,61885
170837,61874
170838,61790
170872,61843
170882,61848
170891,61850
170902,61816
170911,61812
170921,61804
170931,61801
170942,61766
170951,61767
170961,61776
170971,61762
170982,61768
170991,61773
171001,61761
171011,61775
171022,61787
171031,61787
171041,61776
171051,61763
171062,61802
171071,61802
171081,61771
171091,61776
171102,61824
171111,61792
171121,61773
171131,61788
171166,61797
171171,61796
171182,61818
171191,61801
171201,61770
171211,61786
171222,61831
171231,61816
171241,61800
171251,61776
171262,61815
171271,61791
171281,61761
171291,61765
171302,61818
171311,61777
171321,61780
171331,61784
171342,61805
171351,61802
171361,61792
171404,61821
171414,61816
171442,61817
171472,61824
171489,61833
171492,61838
171522,61828
171532,61842
171561,61859
171572,61844
171582,61862
171592,61856
171602,61863
171612,61851
171622,61859
171632,61837
171642,61835
171652,61831
171662,61833
171672,61839
171682,61846
171692,61829
171702,61816
171712,61817
171722,61837
171732,61842
171742,61823
171752,61852
171762,61838
171772,61831
171782,61826
171792,61840
171802,61824
171812,61825
171822,61828
171832,61832
171842,61810
171852,61817
171862,61810
171872,61821
171882,61810
171892,61805
171902,61797
171912,61788
171922,61793
171932,61818
171963,61778
171973,61830
171982,61801
171992,61774
172012,61784
172015,61773
172045,61812
172073,61804
172082,61772
172092,61775
172102,61765
172112,61776
172122,61793
172132,61801
172143,61793
172154,61803
172163,61801
172174,61808
172183,61821
172194,61825
172203,61825
172214,61818
172223,61836
172234,61826
172243,61817
172254,61808
172263,61815
172274,61825
172283,61822
172294,61809
172303,61804
172314,61818
172323,61829
172334,61815
172357,61821
172360,61812
172363,61816
172373,61816
172383,61821
172394,61822
172403,61810
172414,61807
172423,61802
172434,61807
172443,61808
172454,61811
172463,61796
172474,61804
172483,61822
172494,61819
172503,61806
172514,61821
172523,61830
172534,61808
172543,61828
172554,61831
172563,61805
172595,61808
172613,61793
172616,61806
172625,61788
172655,61785
172663,61778
172674,61788
172683,61739
172693,61753
172703,61759
172714,61765
172723,61711
172734,61755
172765,61674
172774,61714
172783,61693
172794,61709
172803,61684
172814,61702
172824,61693
172833,61672
172844,61688
172853,61662
172863,61679
172874,61694
172883,61699
172894,61704
172904,61700
172913,61705
172924,61696
172935,61714
172945,61726
172954,61722
172964,61743
172974,61738
172984,61723
172994,61737
173004,61739
173015,61726
173025,61736
173034,61746
173044,61754
173054,61739
173064,61765
173074,61745
173084,61751
173095,61770
173105,61764
173114,61767
173124,61770
173134,61780
173165,61788
173174,61775
173184,61779
173194,61804
173205,61768
173214,61812
173225,61782
173234,61782
173244,61807
173255,61809
173297,61836
173305,61793
173314,61821
173324,61838
173334,61843
173345,61860
173355,61859
173365,61848
173375,61864
173385,61851
173404,61839
173407,61855
173415,61870
173447,61870
173456,61864
173480,61866
173482,61874
173486,61888
173495,61894
173505,61897
173514,61891
173524,61852
173534,61894
173565,61856
173574,61869
173585,61885
173594,61865
173604,61875
173614,61854
173624,61848
173634,61872
173644,61847
173655,61863
173665,61847
173674,61824
173685,61847
173694,61844
173704,61827
173715,61817
173725,61810
173736,61814
173745,61786
173755,61800
173766,61773
173775,61779
173785,61779
173796,61769
173805,61785
173815,61778
173825,61786
173836,61777
173845,61770
173855,61779
173865,61780
173876,61794
173885,61790
173895,61800
173905,61783
173916,61804
173925,61796
173935,61788
173966,61805
173975,61790
173986,61787
173995,61795
174027,61788
174057,61800
174067,61783
174096,61791
174106,61808
174115,61811
174125,61811
174136,61818
174145,61819
174155,61796
174166,61818
174175,61779
174185,61785
174195,61799
174206,61823
174215,61788
174225,61793
174235,61819
174246,61832
174255,61803
174265,61796
174275,61815
174286,61860
174295,61808
174305,61805
174315,61841
174326,61868
174335,61826
174366,61842
174375,61834
174386,61857
174395,61831
174405,61827
174416,61847
174425,61824
174435,61837
174446,61858
174456,61843
174465,61832
174476,61839
174487,61849
174496,61846
174507,61852
174516,61853
174527,61856
174536,61864
174553,61829
174558,61847
174566,61836
174576,61831
174586,61826
174597,61815
174606,61826
174638,61836
174645,61783
174665,61822
174667,61831
174678,61778
174706,61803
174738,61802
174748,61783
174796,61815
174806,61796
174816,61795
174826,61788
174837,61803
174846,61799
174856,61800
174867,61806
174876,61807
174886,61805
174896,61813
174907,61807
174916,61791
174927,61810
174936,61798
174947,61812
174956,61784
174967,61808
174976,61795
174987,61812
174996,61798
175007,61820
175016,61791
175027,61818
175036,61804
175047,61818
175056,61795
175067,61848
175076,61817
175087,61844
175096,61803
175107,61852
175116,61801
175127,61824
175136,61799
175156,61802
175158,61822
175166,61791
175176,61791
175186,61792
175197,61818
175206,61815
175216,61815
175226,61816
175237,61816
175246,61816
175257,61831
175267,61825
175277,61815
175287,61810
175297,61806
175314,61803
175320,61815
175326,61793
175358,61797
175388,61808
175397,61794
175407,61807
175417,61801
175427,61805
175437,61795
175447,61792
175457,61805
175467,61817
175477,61804
175487,61794
175497,61806
175507,61788
175517,61770
175527,61762
175538,61760
175568,61764
175577,61760
175587,61759
175597,61753
175607,61741
175617,61739
175627,61726
175637,61731
175647,61726
175657,61731
175667,61713
175677,61726
175687,61689
175697,61712
175707,61711
175717,61711
175727,61727
175737,61697
175747,61719
175757,61712
175767,61718
175777,61689
175787,61703
175797,61701
175807,61719
175817,61715
175827,61708
175837,61726
175847,61720
175857,61717
175867,61723
175877,61736
175902,61757
175904,61731
175907,61730
175919,61746
175942,61714
175944,61739
175950,61745
175981,61731
175987,61749
176005,61752
176008,61789
176019,61779
176028,61771
176037,61777
176049,61766
176057,61795
176069,61791
176079,61787
176089,61798
176098,61797
176109,61795
176119,61810
176129,61802
176138,61814
176149,61796
176159,61797
176169,61811
176178,61810
176189,61819
176199,61819
176209,61811
176218,61828
176229,61819
176239,61831
176249,61833
176258,61829
176269,61848
176279,61843
176289,61855
176298,61828
176309,61844
176319,61826
176329,61852
176339,61853
176369,61862
176378,61862
176389,61869
176399,61876
176409,61885
176418,61899
176429,61892
176438,61884
176449,61895
176458,61898
176469,61893
176479,61896
176489,61915
176498,61898
176509,61916
176539,61878
176549,61894
176590,61850
176599,61857
176618,61849
176620,61837
176630,61828
176639,61805
176648,61798
176658,61798
176669,61813
176679,61796
176689,61787
176698,61748
176709,61771
176719,61768
176729,61758
176740,61779
176768,61747
176779,61766
176789,61776
176799,61768
176809,61789
176820,61787
176830,61780
176840,61799
176850,61785
176859,61798
176869,61792
176879,61802
176889,61801
176900,61801
176910,61794
176920,61799
176930,61795
176939,61805
176949,61801
176959,61799
176969,61808
176980,61799
176990,61796
177000,61778
177010,61798
177019,61807
177029,61816
177039,61803
177049,61808
177060,61812
177070,61802
177080,61783
177090,61789
177099,61808
177109,61809
177119,61803
177129,61798
177156,61796
177159,61812
177162,61782
177169,61805
177200,61816
177210,61814
177242,61820
177249,61838
177259,61829
177269,61827
177279,61830
177289,61834
177300,61857
177309,61837
177319,61838
177330,61822
177375,61874
177380,61827
177390,61839
177399,61879
177409,61822
177419,61826
177430,61883
177439,61829
177449,61852
177459,61827
177470,61868
177480,61862
177489,61812
177499,61822
177525,61810
177528,61836
177530,61854
177540,61812
177572,61827
177580,61810
177612,61839
177621,61820
177630,61825
177640,61826
177650,61804
177661,61823
177670,61816
177680,61807
177690,61813
177701,61799
177710,61807
177720,61809
177730,61795
177741,61808
177750,61813
177760,61801
177770,61810
177781,61807
177790,61814
177800,61817
177810,61805
177821,61815
177830,61800
177840,61801
177850,61792
177861,61793
177870,61786
177880,61806
177890,61793
177901,61787
177910,61763
177920,61790
177930,61784
177958,61780
177971,61793
177980,61801
177990,61782
178000,61803
178010,61808
178021,61816
178030,61801
178040,61799
178050,61798
178061,61826
178070,61828
178080,61784
178112,61800
178120,61816
178130,61798
178150,61811
178152,61800
178161,61821
178172,61835
178202,61806
178211,61787
178241,61832
178250,61805
178261,61804
178270,61784
178280,61794
178290,61782
178301,61827
178310,61800
178320,61810
178330,61816
178341,61822
178371,61820
178381,61815
178391,61827
178401,61803
178411,61800
178421,61796
178431,61803
178441,61811
178451,61807
178461,61815
178471,61803
178481,61806
178491,61810
178501,61811
178511,61806
178521,61799
178531,61786
178541,61787
178551,61790
178561,61768
178571,61776
178581,61761
178591,61765
178601,61770
178611,61756
178621,61737
178631,61725
178641,61726
178651,61714
178661,61702
178671,61706
178681,61717
178691,61714
178701,61701
178711,61706
178721,61704
178731,61701
178763,61730
178792,61709
178802,61706
178812,61700
178852,61713
178880,61710
178914,61765
178922,61731
178931,61720
178941,61733
178951,61740
178961,61732
178971,61753
178981,61734
178991,61728
179001,61731
179011,61719
179022,61768
179031,61753
179041,61729
179051,61728
179061,61745
179071,61748
179081,61757
179091,61753
179102,61785
179111,61764
179121,61780
179131,61782
179142,61783
179161,61787
179164,61805
179172,61783
179182,61794
179192,61815
179202,61811
179212,61809
179222,61825
179232,61828
179242,61816
179252,61829
179263,61817
179272,61846
179282,61830
179292,61843
179302,61843
179312,61836
179322,61841
179332,61845
179342,61851
179352,61849
179362,61876
179372,61863
179382,61878
179393,61876
179402,61866
179412,61873
179443,61813
179454,61869
179498,61882
179500,61874
179504,61928
179533,61884
179543,61894
179561,61880
179563,61888
179574,61885
179582,61888
179592,61877
179602,61905
179612,61880
179622,61887
179632,61876
179642,61873
179652,61875
179662,61864
179672,61859
179682,61827
179692,61834
179702,61802
179712,61823
179722,61806
179732,61798
179742,61782
179752,61774
179762,61745
179772,61745
179782,61772
179792,61745
179802,61731
179812,61743
179822,61755
179832,61759
179842,61762
179852,61758
179862,61787
179872,61753
179882,61787
179892,61784
179903,61798
179912,61782
179922,61802
179934,61797
179965,61822
179973,61795
179983,61808
179994,61798
180003,61786
180014,61812
180023,61793
180034,61802
180065,61793
180095,61797
180125,61785
180133,61802
180144,61815
180153,61796
180164,61830
180173,61808
180183,61801
180194,61793
180203,61804
180214,61804
180223,61802
180234,61786
180243,61820
180254,61811
180263,61811
180274,61831
180283,61838
180294,61835
180303,61837
180314,61840
180323,61857
180334,61866
180365,61863
180375,61859
180383,61860
180393,61860
180404,61878
180413,61835
180423,61868
180434,61886
180443,61867
180454,61882
180463,61843
180474,61881
180483,61847
180494,61881
180503,61853
180514,61878
180523,61849
180534,61879
180543,61842
180554,61862
180563,61829
180574,61845
180583,61813
180594,61839
180603,61804
180614,61834
180666,61862
180697,61830
180705,61832
180735,61825
180764,61807
180766,61886
180773,61819
180784,61821
180795,61794
180804,61817
180814,61814
180825,61805
180834,61787
180845,61798
180854,61788
180864,61805
180874,61797
180885,61792
180894,61793
180904,61789
180914,61783
180925,61796
180934,61792
180944,61793
180954,61788
180965,61768
180974,61785
180984,61777
180994,61790
181005,61776
181014,61785
181024,61807
181034,61793
181045,61811
181054,61789
181065,61804
181074,61800
181085,61824
181094,61807
181104,61818
181114,61810
181125,61840
181134,61805
181165,61814
181175,61788
181184,61811
181195,61845
181204,61837
181214,61798
181224,61833
181234,61796
181245,61849
181254,61800
181264,61836
181274,61795
181304,61804
181335,61830
181344,61812
181375,61793
181385,61789
181395,61780
181405,61813
181414,61784
181425,61818
181435,61802
181445,61805
181455,61815
181465,61803
181474,61810
181525,61806
181535,61837
181546,61807
181556,61808
181566,61806
181576,61803
181586,61804
181595,61807
181605,61779
181615,61768
181625,61777
181659,61749
181665,61773
181675,61755
181685,61731
181695,61725
181706,61726
181715,61705
181725,61698
181735,61698
181745,61715
181755,61678
181765,61697
181775,61689
181785,61705
181795,61699
181805,61690
181815,61707
181826,61707
181835,61715
181846,61716
181855,61703
181865,61709
181875,61718
181885,61718
181895,61719
181905,61729
181915,61724
181925,61713
181935,61741
181965,61731
181976,61746
181985,61751
181995,61722
182005,61742
182015,61758
182025,61724
182035,61747
182045,61728
182055,61757
182066,61783
182075,61760
182085,61777
182095,61753
182105,61756
182115,61757
182125,61754
182157,61806
182182,61766
182184,61798
182188,61785
182195,61798
182206,61807
182237,61816
182248,61772
182276,61839
182286,61843
182296,61831
182306,61833
182317,61827
182326,61842
182337,61833
182367,61831
182378,61835
182387,61843
182396,61842
182406,61863
182416,61862
182427,61850
182436,61866
182446,61873
182456,61874
182466,61870
182477,61871
182486,61856
182496,61874
182506,61845
182517,61863
182526,61864
182537,61868
182546,61870
182556,61855
182566,61882
182577,61888
182586,61878
182596,61879
182607,61879
182616,61884
182626,61877
182637,61874
182646,61879
182657,61881
182666,61875
182676,61863
182687,61882
182696,61856
182706,61831
182717,61854
182726,61866
182737,61839
182766,61873
182797,61801
182806,61781
182837,62027
182847,62009
182877,61836
182907,61882
182916,61867
182927,61887
182936,61863
182946,61861
182957,61893
182966,61864
182977,61899
182986,61880
182996,61882
183007,61896
183016,61885
183027,61882
183038,61897
183047,61901
183058,61903
183067,61882
183078,61905
183087,61892
183098,61899
183107,61881
183118,61893
183127,61888
183138,61884
183168,61870
183178,61844
183188,61831
183197,61833
183207,61827
183218,61840
183227,61833
183238,61845
183247,61834
183258,61839
183267,61823
183278,61824
183287,61816
183298,61822
183307,61823
183318,61805
183327,61832
183338,61838
183347,61841
183358,61848
183367,61854
183378,61851
183387,61866
183398,61864
183407,61879
183437,61792
183470,61811
183499,61864
183507,61843
183517,61868
183528,61894
183537,61877
183569,61936
183577,61856
183587,61842
183598,61881
183607,61853
183618,61885
183627,61865
183638,61889
183647,61847
183658,61867
183667,61834
183678,61858
183687,61833
183698,61850
183717,61837
183719,61843
183728,61810
183737,61822
183748,61845
183757,61844
183768,61830
183778,61830
183787,61833
183798,61827
183808,61846
183818,61843
183828,61839
183838,61839
183848,61832
183858,61837
183868,61821
183878,61817
183888,61821
183898,61826
183908,61820
183918,61812
183928,61820
183939,61830
183969,61808
183978,61817
183988,61813
183998,61807
184008,61836
184039,61798
184049,61767
184079,61797
184109,61803
184118,61826
184128,61816
184138,61828
184148,61831
184158,61816
184168,61831
184178,61847
184188,61830
184198,61829
184208,61834
184218,61842
184228,61838
184238,61844
184248,61842
184258,61845
184268,61842
184278,61832
184288,61827
184298,61830
184308,61835
184318,61823
184328,61833
184339,61822
184370,61831
184379,61799
184388,61824
184398,61830
184408,61820
184418,61803
184428,61818
184438,61799
184448,61815
184458,61788
184468,61787
184478,61788
184488,61792
184498,61809
184508,61796
184518,61811
184528,61801
184538,61825
184548,61798
184558,61816
184568,61840
184579,61823
184590,61806
184600,61806
184610,61810
184619,61809
184652,61794
184659,61792
184690,61784
184721,61779
184731,61774
184740,61751
184771,61751
184781,61758
184789,61758
184800,61744
184810,61739
184820,61752
184830,61750
184840,61735
184850,61732
184859,61734
184870,61727
184880,61730
184890,61736
184899,61765
184910,61739
184920,61765
184930,61735
184939,61754
184950,61762
184960,61774
184970,61768
184979,61778
184990,61773
185000,61767
185010,61793
185019,61782
185030,61805
185040,61805
185050,61798
185059,61787
185070,61806
185080,61808
185090,61813
185099,61774
185110,61833
185120,61796
185130,61824
185163,61779
185170,61816
185180,61797
185190,61847
185200,61843
185210,61862
185219,61822
185230,61835
185262,61836
185270,61821
185300,61837
185311,61843
185339,61820
185350,61812
185361,61884
185369,61863
185381,61853
185391,61866
185401,61884
185411,61878
185420,61890
185430,61879
185440,61894
185450,61882
185461,61881
185471,61903
185481,61876
185491,61889
185500,61898
185510,61893
185520,61905
185530,61895
185541,61893
185571,61893
185581,61831
185590,61910
185600,61895
185610,61901
185621,61922
185631,61911
185641,61910
185651,61899
185660,61885
185670,61901
185680,61901
185690,61893
185701,61884
185711,61877
185721,61897
185731,61877
185740,61878
185750,61861
185760,61862
185770,61858
185781,61862
185791,61855
185801,61847
185811,61849
185820,61832
185830,61822
185840,61813
185850,61788
185880,61831
185882,61887
185890,61814
185902,61845
185911,61833
185921,61841
185930,61812
185940,61831
185951,61823
185961,61847
185970,61819
185981,61862
185990,61826
186001,61882
186010,61817
186061,61838
186071,61841
186081,61859
186091,61815
186100,61815
186111,61842
186121,61852
186131,61834
186141,61846
186151,61841
186161,61861
186170,61840
186201,61818
186233,61852
186242,61855
186251,61825
186284,61817
186292,61866
186325,61907
186331,61858
186341,61825
186372,61867
186382,61870
186392,61868
186401,61827
186411,61889
186421,61879
186431,61880
186441,61859
186451,61878
186462,61849
186471,61877
186481,61860
186491,61876
186502,61890
186511,61871
186521,61868
186531,61858
186542,61886
186551,61883
186561,61872
186571,61877
186582,61882
186591,61870
186601,61852
186611,61867
186622,61902
186631,61865
186641,61827
186651,61848
186662,61867
186671,61859
186681,61829
186691,61831
186702,61880
186711,61849
186721,61823
186731,61855
186791,61838
186802,61841
186812,61837
186821,61824
186853,61861
186861,61810
186872,61815
186902,61832
186912,61837
186922,61837
186952,61842
186962,61822
186972,61837
186982,61827
186992,61828
187002,61815
187012,61817
187022,61828
187032,61819
187042,61824
187052,61824
187062,61824
187072,61837
187082,61825
187092,61823
187102,61836
187112,61834
187122,61838
187132,61830
187164,61869
187172,61837
187183,61828
187192,61852
187202,61846
187212,61839
187222,61836
187232,61850
187242,61852
187252,61850
187262,61839
187272,61862
187282,61849
187292,61859
187302,61851
187312,61862
187322,61844
187332,61836
187342,61846
187352,61859
187362,61859
187372,61860
187382,61857
187392,61857
187402,61849
187412,61858
187422,61850
187432,61850
187442,61852
187453,61873
187484,61847
187495,61860
187524,61853
187553,61840
187564,61834
187616,61819
187624,61813
187634,61809
187662,61809
187674,61797
187682,61788
187694,61778
187703,61784
187714,61775
187723,61764
187734,61774
187743,61767
187754,61762
187763,61749
187773,61759
187783,61750
187794,61752
187803,61743
187814,61737
187823,61736
187833,61732
187844,61746
187853,61738
187863,61751
187874,61741
187883,61762
187894,61764
187903,61761
187914,61756
187923,61753
187934,61760
187962,61766
187976,61756
187984,61746
187993,61741
188004,61776
188013,61777
188024,61786
188034,61789
188043,61787
188054,61803
188063,61811
188074,61810
188083,61812
188094,61798
188103,61803
188114,61820
188123,61820
188134,61840
188143,61830
188154,61834
188163,61825
188174,61839
188221,61824
188235,61858
188263,61840
188275,61869
188283,61839
188294,61873
188303,61841
188314,61878
188323,61821
188334,61880
188361,61831
188374,61875
188384,61838
188394,61866
188403,61857
188414,61865
188423,61863
188434,61866
188443,61866
188454,61877
188464,61885
188474,61883
188485,61895
188494,61892
188504,61890
188514,61891
188525,61887
188534,61883
188544,61891
188554,61897
188565,61882
188574,61877
188584,61891
188594,61892
188605,61889
188614,61892
188624,61892
188634,61886
188645,61880
188654,61876
188664,61886
188674,61859
188685,61882
188694,61860
188704,61841
188714,61842
188725,61829
188734,61831
188765,61808
188775,61823
188806,61797
188832,61790
188844,61810
188876,61809
188886,61814
188894,61834
188905,61846
188914,61833
188924,61797
188934,61843
188945,61834
188954,61806
188965,61845
188974,61813
188984,61837
188994,61806
189005,61849
189014,61806
189024,61847
189034,61790
189045,61865
189054,61810
189065,61852
189074,61827
189085,61836
189094,61812
189104,61812
189114,61803
189124,61805
189134,61798
189168,61827
189175,61835
189185,61868
189195,61834
189204,61830
189214,61844
189226,61830
189235,61836
189245,61846
189255,61841
189265,61845
189275,61855
189285,61847
189295,61853
189306,61848
189315,61847
189325,61854
189335,61865
189345,61857
189355,61853
189365,61863
189375,61857
189386,61865
189418,61850
189445,61878
189458,61879
189488,61853
189496,61853
189507,61872
189535,61859
189567,61821
189577,61848
189586,61845
189595,61867
189605,61869
189615,61863
189626,61852
189635,61867
189645,61864
189655,61855
189665,61829
189675,61849
189685,61845
189695,61854
189706,61861
189715,61847
189725,61849
189735,61833
189745,61807
189755,61842
189766,61839
189775,61820
189785,61804
189795,61832
189805,61818
189815,61835
189847,61825
189855,61817
189866,61842
189875,61795
189885,61801
189895,61785
189905,61800
189915,61802
189925,61808
189935,61834
189970,61803
189976,61822
189986,61788
189996,61819
190007,61836
190016,61840
190026,61842
190054,61854
190066,61837
190075,61829
190088,61859
190096,61840
190107,61856
190117,61846
190125,61866
190136,61831
190147,61851
190157,61839
190167,61857
190210,61846
190216,61839
190226,61859
190237,61845
190247,61841
190258,61865
190267,61846
190278,61835
190286,61846
190297,61860
190306,61845
190316,61853
190326,61833
190336,61845
190367,61850
190378,61845
190408,61837
190418,61856
190427,61863
190457,61884
190466,61849
190477,61845
190486,61838
190497,61845
190506,61837
190516,61821
190527,61830
190536,61807
190547,61841
190556,61808
190566,61800
190576,61776
190586,61795
190597,61806
190606,61769
190617,61780
190626,61730
190636,61751
190647,61768
190656,61731
190666,61733
190677,61746
190686,61725
190697,61759
190706,61734
190716,61744
190727,61756
190736,61763
190768,61765
190778,61770
190787,61789
190798,61774
190807,61764
190818,61788
190827,61774
190838,61778
190847,61772
190858,61772
190867,61774
190877,61788
190888,61790
190897,61793
190908,61792
190917,61778
190928,61787
190937,61800
190948,61789
190957,61802
190989,61802
191018,61817
191028,61797
191038,61844
191068,61838
191077,61847
191088,61839
191097,61834
191108,61854
191117,61862
191128,61860
191137,61831
191167,61868
191178,61847
191188,61856
191197,61841
191208,61887
191217,61848
191228,61890
191237,61868
191248,61899
191257,61852
191268,61898
191277,61882
191288,61897
191297,61855
191308,61900
191317,61901
191328,61908
191337,61865
191348,61914
191357,61868
191368,61923
191377,61889
191388,61911
191397,61872
191408,61910
191417,61884
191428,61918
191437,61859
191448,61916
191457,61881
191468,61899
191477,61899
191488,61883
191498,61890
191507,61878
191518,61902
191528,61893
191539,61894
191570,61887
191578,61852
191609,61816
191619,61844
191649,61815
191658,61811
191670,61798
191700,61780
191729,61819
191739,61812
191748,61835
191758,61840
191768,61826
191778,61825
191788,61832
191798,61810
191808,61804
191818,61819
191828,61824
191838,61816
191848,61817
191858,61838
191868,61832
191878,61835
191888,61846
191898,61869
191908,61852
191918,61843
191928,61838
191939,61857
191969,61844
191980,61850
191988,61840
191998,61847
192008,61859
192018,61847
192028,61842
192038,61837
192048,61849
192058,61824
192068,61840
192078,61844
192088,61838
192098,61838
192108,61862
192118,61846
192128,61857
192138,61842
192148,61864
192158,61846
192168,61837
192178,61839
192188,61846
192198,61854
192208,61842
192218,61852
192228,61837
192238,61843
192270,61880
192279,61897
192310,61871
192350,61879
192361,61888
192400,61880
192409,61836
192420,61885
192430,61867
192440,61861
192450,61858
192459,61847
192470,61868
192480,61861
192490,61846
192499,61876
192510,61843
192520,61855
192530,61856
192539,61859
192550,61856
192560,61869
192570,61852
192579,61837
192590,61852
192600,61843
192610,61831
192619,61844
192630,61852
192640,61835
192650,61843
192659,61852
192670,61829
192680,61865
192690,61856
192699,61861
192710,61851
192720,61862
192730,61861
192770,61851
192780,61846
192789,61861
192800,61865
192810,61863
192820,61863
192830,61870
192839,61833
192850,61863
192913,61865
192920,61856
192931,61879
192961,61838
192990,61868
192993,61852
193000,61925
193039,61809
193050,61840
193059,61831
193070,61846
193080,61860
193090,61868
193099,61850
193110,61846
193120,61850
193130,61858
193161,61851
193171,61840
193183,61865
193189,61818
193200,61841
193210,61847
193220,61865
193230,61842
193240,61847
193250,61853
193261,61849
193271,61833
193281,61841
193291,61836
193300,61835
193310,61842
193320,61842
193330,61837
193341,61855
193351,61846
193361,61828
193371,61824
193380,61804
193390,61820
193400,61812
193410,61817
193421,61785
193431,61778
193441,61784
193451,61783
193460,61792
193470,61768
193480,61755
193490,61764
193501,61779
193511,61791
193521,61774
193531,61772
193571,61756
193602,61750
193604,61833
193611,61762
193621,61776
193631,61746
193661,61752
193670,61764
193703,61824
193711,61806
193721,61808
193731,61820
193740,61787
193750,61773
193760,61779
193770,61757
193781,61802
193791,61798
193801,61820
193811,61808
193820,61791
193830,61817
193840,61835
193850,61830
193861,61823
193871,61829
193881,61829
193891,61837
193902,61848
193911,61851
193921,61851
193931,61855
193963,61850
193966,61847
193970,61847
193982,61854
193990,61833
194001,61878
194011,61867
194021,61856
194031,61874
194041,61869
194051,61879
194061,61884
194071,61871
194081,61884
194091,61892
194102,61896
194111,61892
194121,61908
194131,61892
194142,61892
194151,61888
194161,61899
194171,61896
194182,61895
194191,61885
194201,61908
194232,61915
194242,61901
194252,61921
194284,61906
194293,61907
194323,61898
194331,61899
194342,61900
194353,61880
194362,61874
194372,61896
194382,61885
194392,61864
194402,61875
194411,61827
194422,61827
194431,61813
194441,61820
194491,61819
194501,61797
194511,61792
194522,61856
194531,61799
194542,61842
194552,61815
194562,61844
194571,61809
194581,61810
194592,61812
194602,61857
194634,61892
194642,61834
194652,61808
194661,61846
194672,61836
194682,61840
194692,61859
194702,61873
194712,61864
194722,61837
194732,61834
194775,61843
194783,61829
194792,61843
194802,61845
194812,61831
194822,61843
194832,61842
194842,61855
194853,61833
194862,61845
194872,61828
194882,61822
194892,61818
194902,61817
194912,61838
194922,61861
194932,61856
194942,61851
194952,61860
194962,61878
194972,61873
194982,61862
194992,61877
195002,61895
195012,61896
195022,61886
195032,61886
195042,61894
195052,61895
195062,61875
195072,61872
195082,61890
195092,61880
195102,61887
195112,61886
195122,61874
195162,61860
195175,61861
195204,61889
195213,61861
195223,61838
195256,61808
195266,61860
195273,61851
195303,61821
195312,61839
195322,61814
195332,61803
195342,61829
195352,61812
195362,61825
195373,61837
195383,61856
195392,61842
195402,61837
195414,61841
195423,61841
195434,61833
195443,61834
195454,61832
195463,61839
195474,61831
195483,61824
195494,61846
195503,61829
195514,61812
195523,61831
195534,61825
195563,61842
195565,61854
195575,61825
195585,61832
195593,61839
195604,61833
195613,61831
195623,61839
195634,61845
195643,61830
195654,61838
195663,61828
195674,61837
195683,61839
195694,61839
195703,61817
195714,61839
195723,61846
195734,61837
195743,61836
195754,61861
195763,61864
195774,61852
195783,61862
195794,61857
195803,61867
195814,61869
195844,61845
195853,61845
195925,61846
195965,61855
195995,61814
196035,61798
196064,61847
196074,61798
196085,61833
196093,61792
196103,61811
196114,61790
196123,61781
196134,61809
196144,61796
196154,61773
196163,61796
196174,61776
196184,61768
196194,61766
196205,61755
196214,61756
196224,61745
196234,61756
196245,61746
196254,61746
196264,61725
196274,61733
196285,61740
196294,61747
196304,61744
196314,61753
196325,61745
196334,61746
196366,61726
196375,61790
196385,61777
196394,61767
196404,61767
196414,61766
196424,61772
196435,61762
196444,61775
196454,61756
196465,61777
196474,61785
196485,61779
196494,61780
196505,61787
196514,61790
196525,61821
196534,61801
196566,61814
196598,61798
196635,61817
196645,61827
196654,61847
196665,61874
196674,61833
196684,61806
196694,61740
196704,61800
196714,61771
196725,61824
196734,61773
196776,61836
196786,61788
196794,61802
196804,61793
196814,61782
196824,61798
196834,61790
196845,61827
196854,61809
196864,61788
196874,61809
196885,61816
196894,61819
196905,61822
196914,61817
196925,61816
196934,61807
196946,61813
196955,61800
196965,61807
196975,61791
196985,61802
196995,61806
197005,61803
197016,61795
197025,61780
197035,61802
197045,61803
197055,61791
197066,61772
197075,61764
197086,61766
197095,61734
197105,61734
197115,61728
197125,61732
197135,61721
197175,61712
197207,61688
197210,61809
197217,61682
197225,61694
197256,61662
197265,61677
197298,61683
197307,61710
197346,61683
197356,61721
197365,61710
197375,61709
197386,61707
197395,61698
197406,61727
197415,61682
197425,61671
197435,61698
197445,61672
197455,61685
197465,61693
197475,61687
197485,61707
197495,61713
197505,61691
197515,61710
197525,61673
197536,61731
197566,61706
197577,61743
197587,61740
197595,61687
197605,61692
197615,61692
197626,61745
197635,61706
197645,61729
197655,61721
197665,61747
197675,61775
197685,61765
197696,61781
197706,61781
197715,61802
197726,61797
197737,61787
197746,61795
197756,61795
197767,61822
197776,61805
197786,61814
197796,61807
197807,61808
197816,61810
197826,61801
197837,61810
197868,61814
197870,61731
197878,61821
197917,61823
197957,61730
197966,61717
198001,61721
198007,61711
198016,61735
198026,61714
198036,61705
198047,61738
198056,61749
198066,61723
198077,61728
198086,61740
198097,61744
198106,61732
198116,61724
198127,61720
198136,61704
198146,61689
198157,61701
198166,61693
198177,61704
198186,61688
198196,61675
198207,61686
198216,61696
198226,61958
198236,62260
198246,62256
198256,62268
198266,62259
198277,62265
198286,62247
198297,62269
198306,62238
198316,62271
198327,62339
198336,62511
198369,62620
198377,62565
198387,62575
198397,62608
198406,62764
198417,62792
198426,62759
198436,62767
198447,62784
198456,62778
198488,62760
198520,62679
198529,62753
198567,62726
198578,62714
198587,62711
198598,62702
198607,62685
198618,62698
198627,62696
198638,62692
198647,62687
198658,62697
198667,62679
198678,62670
198687,62679
198698,62673
198707,62663
198718,62652
198727,62665
198738,62661
198771,62784
198778,62664
198788,62621
198798,62627
198808,62619
198817,62652
198828,62659
198837,62681
198848,62704
198858,62666
198868,62665
198878,62667
198887,62667
198897,62634
198949,62615
198957,62609
198967,62637
198977,62626
198988,62600
198997,62585
199007,62574
199017,62617
199027,62569
199037,62579
199048,62609
199058,62624
199067,62600
199097,62668
199138,62601
199149,62592
199178,62600
199187,62582
199220,62580
199227,62631
199238,62619
199273,62623
199279,62656
199288,62656
199298,62661
199308,62656
199318,62650
199328,62645
199338,62624
199348,62642
199358,62590
199368,62589
199378,62581
199388,62594
199398,62574
199408,62487
199418,62475
199428,62406
199438,62407
199448,62404
199458,62403
199468,62393
199478,62397
199488,62395
199498,62408
199508,62386
199518,62389
199528,62357
199539,62341
199569,62215
199579,62136
199589,62157
199598,62057
199608,61967
199618,61990
199628,62079
199638,62179
199648,62280
199658,62414
199668,62533
199678,62604
199688,62642
199698,62664
199708,62679
199718,62682
199728,62658
199738,62688
199748,62690
199758,62674
199768,62671
199778,62649
199809,62629
199818,62633
199851,62640
199858,62608
199869,62596
199901,62635
199908,62602
199918,62628
199928,62626
199939,62602
199971,62685
199978,62628
199989,62650
199999,62633
200008,62628
200018,62631
200028,62607
200038,62617
200048,62671
200059,62662
200069,62660
200080,62672
200090,62683
200099,62611
200110,62666
200120,62615
200130,62654
200139,62643
200150,62648
200160,62647
200170,62653
200179,62650
200190,62660
200200,62642
200210,62651
200219,62659
200230,62648
200240,62654
200250,62663
200259,62674
200270,62689
200280,62686
200290,62688
200299,62679
200310,62700
200320,62713
200330,62697
200373,62736
200381,62707
200391,62759
200399,62818
200410,62499
200451,61821
200459,61815
200501,61798
200511,61827
200542,62368
200572,62363
200580,62294
200592,62199
200599,61347
200610,61275
200619,61257
200630,61260
200640,61215
200650,61143
200659,61086
200670,61066
200680,61034
200690,60999
200699,60961
200710,60967
200720,60936
200730,60935
200763,60988
200773,61124
200780,61051
200819,61758
200830,61762
200840,61760
200850,61738
200860,61723
200870,61740
200880,61742
200890,61764
200901,61785
200911,61830
200921,61852
200931,61881
200940,61880
200950,61874
200960,61881
200970,61864
200981,61881
200991,61848
201001,61860
201011,61832
201020,61830
201030,61835
201040,61823
201050,61820
201061,61824
201071,61829
201081,61836
201091,61883
201131,61948
201141,62018
201212,62147
201252,62143
201260,62150
201300,62110
201311,62157
201321,62153
201331,62141
201340,62149
201351,62159
201361,62146
201371,62149
201380,62130
201390,62115
201400,62106
201410,62105
201421,62159
201431,62152
201441,62146
201451,62138
201460,62090
201470,62084
201480,62082
201490,62077
201501,62103
201511,62114
201521,62077
201531,62092
201542,62096
201572,62059
201581,62081
201590,62074
201600,62066
201611,62043
201622,62055
201631,62059
201641,62047
201651,62054
201662,62051
201671,62052
201681,62059
201691,62061
201702,62060
201711,62072
201721,62054
201731,62073
201742,62065
201751,62076
201761,62072
201771,62077
201782,62063
201791,62095
201833,62087
201843,62096
201874,62046
201881,62093
201921,62119
201931,62113
201942,62116
201982,62116
201992,62142
202001,62149
202011,62133
202022,62139
202031,62136
202041,62126
202051,62116
202062,62162
202071,62154
202081,62128
202091,62127
202102,62175
202112,62170
202121,62142
202131,62144
202142,62170
202151,62144
202161,62147
202171,62136
202214,62171
202221,62182
202231,62154
202241,62157
202251,62157
202262,62197
202271,62171
202281,62158
202291,62160
202302,62199
202311,62189
202321,62190
202331,62189
202342,62174
202372,62163
202381,62157
202391,62174
202402,62177
202412,62187
202453,62114
202464,62158
202503,62098
202537,62101
202539,62156
202544,62103
202551,62089
202562,62089
202572,62101
202582,62091
202592,62090
202602,62101
202612,62092
202622,62095
202632,62082
202642,62098
202652,62107
202662,62079
202672,62101
202682,62110
202692,62102
202702,62107
202712,62123
202722,62109
202732,62127
202773,62115
202782,62104
202792,62111
202802,62126
202812,62119
202822,62114
202832,62133
202842,62128
202852,62123
202862,62112
202872,62132
202882,62115
202893,62141
202902,62102
202912,62126
202922,62115
202932,62124
202942,62106
202952,62123
202962,62127
202972,62123
202982,62121
202992,62123
203002,62117
203012,62111
203022,62118
203032,62099
203042,62100
203084,62153
203095,62156
203103,62141
203112,62113
203123,62140
203132,62148
203144,62155
203153,62119
203162,62157
203173,62147
203184,62138
203193,62145
203202,62149
203246,62311
203253,62423
203263,62416
203273,62390
203283,62430
203293,62404
203303,62399
203314,62407
203324,62404
203334,62401
203343,62392
203353,62399
203386,62412
203425,62387
203434,62421
203476,62386
203484,62405
203493,62400
203503,62409
203514,62407
203523,62412
203533,62404
203574,62401
203583,62400
203594,62423
203603,62405
203614,62419
203623,62401
203634,62409
203643,62396
203654,62429
203663,62413
203674,62462
203683,62404
203694,62406
203703,62389
203714,62410
203723,62360
203734,62402
203743,62393
203754,62423
203763,62379
203774,62420
203783,62393
203794,62418
203803,62375
203814,62394
203823,62385
203834,62407
203843,62365
203854,62391
203863,62378
203874,62379
203883,62366
203894,62391
203904,62395
203914,62394
203924,62410
203934,62394
203974,62375
204000,62338
204003,62367
204007,62495
204015,62706
204038,62686
204041,62656
204045,62649
204061,62609
204064,62603
204074,62641
204084,62622
204116,62643
204124,62550
204134,62624
204145,62594
204154,62606
204164,62586
204174,62595
204184,62582
204194,62567
204205,62541
204214,62555
204224,62554
204234,62544
204245,62535
204254,62538
204265,62555
204274,62501
204285,62531
204294,62490
204304,62483
204314,62406
204325,62558
204334,62537
204365,62551
204374,62599
204384,62451
204395,62413
204404,62486
204414,62598
204425,62635
204434,62594
204444,62627
204454,62600
204464,62634
204474,62607
204485,62678
204494,62658
204504,62683
204514,62629
204525,62654
204534,62575
204544,62587
204554,62613
204564,62657
204574,62688
204584,62669
204594,62647
204605,62683
204614,62659
204624,62649
204643,62670
204646,62641
204677,62675
204687,62712
204729,62715
204732,62709
204735,62713
204747,62739
204770,62778
204773,62793
204776,62751
204806,62744
204816,62724
204825,62750
204835,62758
204845,62756
204855,62748
204866,62765
204875,62763
204885,62760
204895,62766
204905,62768
204915,62770
204925,62768
204935,62751
204945,62764
204955,62760
204965,62764
204975,62748
204985,62755
204995,62717
205005,62730
205015,62720
205026,62735
205035,62765
205045,62746
205055,62776
205065,62757
205075,62742
205085,62725
205095,62735
205106,62734
205115,62763
205125,62755
205136,62763
205167,62698
205175,62701
205186,62712
205195,62692
205205,62663
205215,62675
205246,62713
205255,62727
205266,62721
205275,62700
205320,62740
205323,62717
205327,62673
205357,62790
205365,62719
205375,62712
205385,62704
205395,62705
205405,62720
205415,62716
205426,62730
205435,62715
205446,62711
205455,62725
205465,62733
205476,62713
205485,62742
205496,62733
205506,62739
205517,62745
205526,62736
205536,62755
205567,62756
205576,62768
205587,62768
205596,62771
205606,62800
205616,62830
205626,62826
205637,62654
205646,62140
205656,61488
205666,61452
205677,61520
205686,61536
205697,61583
205706,62284
205716,62431
205727,62447
205736,62404
205746,62488
205757,62623
205766,62697
205777,62705
205786,62700
205796,62642
205807,62669
205816,62689
205826,62671
205837,62689
205846,62687
205857,62688
205907,62683
205931,62671
205935,62672
205938,62830
205967,62662
205976,62677
205987,62688
205996,62665
206006,62660
206016,62656
206026,62670
206037,62674
206046,62661
206057,62686
206066,62654
206076,62656
206087,62678
206096,62640
206106,62627
206117,62674
206126,62632
206137,62658
206146,62631
206156,62624
206167,62653
206176,62625
206186,62642
206197,62661
206206,62654
206217,62658
206226,62647
206237,62638
206246,62653
206257,62660
206268,62680
206277,62674
206288,62717
206297,62715
206308,62692
206317,62663
206328,62643
206337,62654
206356,62652
206359,62627
206367,62681
206377,62652
206387,62667
206398,62673
206407,62668
206418,62672
206427,62668
206438,62651
206447,62674
206458,62661
206467,62665
206486,62654
206489,62661
206498,62682
206527,62687
206552,62674
206554,62656
206557,62663
206567,62626
206577,62531
206588,62596
206597,62615
206608,62621
206617,62603
206628,62615
206637,62619
206648,62616
206657,62585
206668,62615
206677,62605
206687,62585
206698,62595
206707,62599
206718,62600
206727,62601
206738,62599
206769,62563
206777,62567
206788,62593
206797,62589
206808,62591
206817,62537
206828,62580
206837,62556
206848,62563
206857,62525
206868,62564
206877,62501
206888,62536
206897,62488
206908,62518
206917,62484
206928,62521
206937,62491
206947,62492
206958,62502
206967,62489
206978,62505
206987,62502
206998,62486
207007,62507
207018,62509
207028,62491
207038,62509
207048,62510
207058,62504
207068,62495
207098,62575
207129,62507
207139,62509
207177,62516
207181,62498
207189,62535
207198,62534
207208,62537
207218,62553
207228,62562
207239,62542
207249,62583
207259,62576
207269,62579
207278,62584
207288,62557
207298,62557
207338,62555
207349,62557
207358,62580
207370,62563
207378,62575
207388,62578
207398,62574
207408,62579
207419,62552
207429,62556
207438,62593
207450,62593
207458,62605
207468,62617
207478,62634
207488,62674
207498,62657
207508,62660
207518,62664
207528,62662
207539,62663
207569,62647
207578,62670
207588,62668
207598,62660
207608,62650
207618,62651
207628,62627
207638,62631
207648,62578
207658,62404
207668,62565
207678,62621
207688,62629
207698,62577
207708,62576
207718,62574
207728,62563
207738,62558
207748,62564
207758,62563
207768,62541
207778,62555
207788,62518
207798,62537
207808,62529
207819,62532
207830,62518
207840,62531
207850,62521
207859,62518
207870,62510
207880,62511
207890,62521
207899,62513
207910,62524
207920,62520
207930,62526
207956,62536
207991,62542
207999,62497
208029,62531
208041,62532
208070,62539
208078,62545
208090,62539
208100,62509
208109,62531
208120,62526
208130,62525
208139,62540
208150,62543
208160,62539
208170,62530
208179,62548
208190,62534
208200,62533
208210,62548
208219,62545
208230,62551
208240,62562
208250,62543
208259,62546
208270,62556
208280,62552
208290,62549
208299,62574
208310,62581
208320,62588
208330,62592
208357,62575
208370,62564
208379,62507
208390,62505
208400,62444
208410,62398
208419,62323
208430,62282
208440,62241
208450,62185
208459,62109
208470,62094
208480,62010
208490,61987
208499,61947
208510,61979
208520,62012
208530,62026
208539,61982
208550,61974
208560,61966
208570,61982
208579,61983
208611,61981
208620,61960
208651,61996
208678,61954
208712,61981
208721,61950
208730,61975
208761,61950
208771,61960
208780,61966
208790,61953
208800,61950
208810,61936
208821,61955
208831,61954
208841,61961
208851,61938
208860,61936
208890,61927
208900,61947
208910,61943
208920,61940
208930,61930
208941,61928
208951,61948
208961,61935
208971,61959
208980,61961
208990,61948
209000,61961
209010,61961
209021,61970
209031,61977
209041,61985
209051,61986
209060,61972
209070,61950
209080,61955
209090,61950
209101,61969
209111,61983
209121,61998
209131,61989
209141,61973
209150,61936
209160,61946
209170,61940
209181,61997
209191,61988
209201,62001
209211,61986
209220,61949
209230,61939
209241,61929
209259,61953
209262,61959
209292,61950
209300,61898
209311,61940
209340,61922
209370,61943
209380,61941
209392,61951
209400,61949
209411,61961
209421,61936
209431,61938
209441,61923
209451,61919
209462,61890
209471,61906
209481,61908
209491,61933
209502,61967
209511,61942
209521,61916
209531,61909
209541,61909
209552,61927
209561,61925
209571,61922
209582,61911
209591,61904
209601,61896
209611,61888
209622,61911
209631,61926
209658,61936
209660,61946
209664,61945
209671,61930
209681,61906
209691,61901
209701,61910
209711,61879
209721,61876
209731,61866
209742,61870
209751,61873
209761,61884
209771,61880
209781,61872
209791,61883
209801,61857
209811,61859
209822,61882
209831,61889
209841,61874
209851,61874
209861,61882
209888,61899
209890,61925
209893,61888
209903,61950
209930,61930
209942,61900
209972,61909
209981,61955
209991,61922
210001,61920
210011,61940
210022,61969
210031,61948
210041,61937
210071,62077
210081,61963
210092,62005
210101,61975
210112,61992
210122,61990
210132,62005
210141,62027
210151,62014
210162,62014
210172,61992
210182,62014
210192,61998
210202,62011
210212,62007
210222,62015
210232,62009
210242,62010
210252,62011
210262,61999
210272,62012
210282,62013
210292,61982
210302,61991
210312,61997
210322,61996
210332,61976
210342,61979
210352,61984
210362,61961
210372,61968
210383,61938
210393,61946
210402,61900
210412,61897
210422,61890
210432,61894
210464,61892
210473,61903
210505,61923
210512,61930
210523,61933
210555,61903
210562,61924
210593,61925
210602,61923
210612,61942
210622,61930
210632,61924
210642,61931
210652,61941
210662,61934
210672,61938
210682,61937
210692,61950
210702,61937
210712,61940
210722,61936
210732,61956
210742,61925
210752,61940
210762,61916
210772,61919
210782,61930
210792,61926
210802,61920
210812,61896
210822,61915
210832,61913
210863,61943
210874,61968
210882,61924
210892,61948
210902,61966
210912,61975
210924,61963
210933,61973
210943,61981
210954,61978
210963,61983
210973,61965
210983,61977
210994,61976
211003,61971
211014,61972
211023,61980
211034,61979
211043,61972
211054,61969
211063,61979
211074,61966
211083,61962
211094,61959
211125,61962
211136,61923
211145,61965
211173,61946
211199,61945
211202,61958
211204,61913
211215,61943
211223,61953
211233,61951
211244,61937
211274,61955
211284,61934
211293,61941
211303,61949
211314,61949
211323,61948
211334,61935
211343,61936
211354,61939
211363,61943
211374,61958
211383,61931
211394,61944
211403,61940
211414,61948
211423,61913
211434,61946
211443,61921
211454,61931
211463,61898
211474,61939
211483,61943
211494,61944
211503,61912
211514,61933
211523,61910
211534,61948
211543,61896
211554,61949
211563,61919
211574,61938
211583,61940
211594,61957
211603,61915
211614,61951
211623,61938
211634,61943
211664,61960
211674,61953
211683,61962
211694,61955
211705,61958
211714,61956
211739,61978
211741,61961
211744,61936
211754,61896
211764,61942
211774,61957
211784,61962
211795,61953
211804,61974
211814,61946
211824,61960
211834,61940
211844,61952
211854,61930
211864,61959
211914,61922
211924,61939
211934,61936
211944,61937
211954,61927
211964,61910
211974,61933
211985,61920
211995,61903
212004,61925
212015,61903
212048,61864
212076,61872
212086,61857
212095,61865
212114,61855
212117,61886
212125,61830
212157,61799
212164,61834
212174,61833
212184,61860
212196,61870
212213,61854
212216,61851
212225,61859
212235,61864
212244,61843
212254,61848
212264,61873
212274,61843
212285,61897
212294,61841
212304,61865
212314,61856
212325,61898
212334,61861
212344,61869
212354,61857
212365,61889
212374,61883
212384,61875
212394,61897
212405,61892
212414,61901
212424,61915
212434,61934
212444,61923
212455,61927
212465,61931
212474,61942
212506,61946
212515,61949
212525,61949
212535,61955
212546,61957
212555,61945
212565,61962
212575,61960
212585,61963
212595,61985
212605,61977
212615,61982
212626,61981
212635,61980
212645,61988
212655,61984
212688,61988
212697,61996
212726,61994
212757,62010
212769,62001
212795,62009
212825,62038
212836,62016
212845,62023
212855,62014
212866,62024
212875,62013
212885,62001
212895,62006
212928,61966
212937,61958
212945,61953
212955,61928
212966,61954
212975,61900
212985,61890
212995,61917
213005,61875
213015,61892
213026,61924
213035,61916
213045,61912
213055,61899
213065,61881
213075,61917
213085,61892
213095,61913
213105,61891
213115,61901
213125,61901
213135,61912
213146,61950
213155,61912
213165,61904
213175,61914
213186,61924
213195,61924
213205,61918
213215,61929
213226,61948
213235,61944
213246,61931
213257,61945
213266,61942
213276,61938
213307,61940
213316,61922
213342,61921
213345,61892
213348,61936
213378,61899
213409,61947
213417,61947
213426,61951
213437,61937
213446,61953
213457,61972
213466,61951
213477,61952
213486,61947
213497,61970
213506,61964
213516,61951
213527,61974
213536,61987
213546,61977
213557,61995
213566,61971
213577,61974
213586,62001
213596,61984
213607,61978
213616,62001
213626,61977
213637,61992
213646,61998
213657,62013
213666,61994
213676,61976
213707,62019
213717,61974
213726,61963
213736,61961
213747,61987
213756,61969
213766,61958
213776,61957
213786,61945
213797,61980
213806,61942
213817,61973
213826,61952
213836,61934
213847,61962
213856,61924
213866,61926
213876,61928
213887,61936
213896,61918
213906,61905
213939,61946
213968,61932
213999,61926
214007,61920
214017,61931
214028,61926
214037,61927
214048,61929
214057,61936
214068,61935
214077,61925
214088,61941
214097,61942
214125,61937
214138,61926
214147,61942
214157,61943
214168,61965
214177,61953
214188,61962
214197,61958
214208,61965
214217,61951
214228,61967
214237,61967
214247,61964
214258,61969
214267,61953
214278,61943
214287,61952
214298,61955
214307,61975
214318,61968
214327,61957
214338,61967
214347,61967
214358,61972
214367,61965
214378,61957
214387,61974
214398,61971
214407,61976
214418,61970
214427,61972
214438,61952
214447,61937
214458,61949
214467,61939
214478,61950
214508,61916
214540,61949
214548,61931
214581,61881
214608,61859
214619,61902
214627,61849
214638,61876
214647,61843
214658,61878
214667,61824
214678,61856
214687,61820
214698,61845
214707,61825
214717,61847
214728,61848
214737,61843
214748,61844
214757,61843
214768,61847
214779,61873
214788,61861
214798,61857
214808,61869
214818,61866
214828,61890
214838,61860
214848,61865
214858,61866
214868,61880
214878,61867
214911,61898
214918,61907
214928,61895
214938,61911
214948,61902
214958,61906
214968,61916
214978,61932
214988,61936
214998,61914
215008,61937
215018,61922
215028,61942
215038,61928
215048,61935
215058,61947
215068,61925
215078,61927
215088,61930
215115,61961
215117,61969
215121,61955
215129,61959
215159,61995
215190,61981
215199,61979
215229,61983
215241,62006
215248,62042
215258,62024
215268,62011
215278,62017
215288,62017
215320,62084
215328,62003
215338,62005
215348,62031
215358,62033
215368,62050
215378,62013
215388,62024
215398,62034
215408,62012
215418,62025
215428,62023
215438,62007
215448,62018
215458,62008
215468,61988
215478,61998
215488,61977
215498,61988
215508,61982
215518,61989
215528,61947
215538,61963
215548,61947
215558,61958
215568,61953
215578,61951
215590,61939
215600,61955
215610,61931
215619,61942
215630,61942
215640,61941
215650,61958
215659,61950
215670,61960
215679,61969
215710,61968
215720,61988
215729,61958
215739,61974
215770,61918
215780,61987
215809,62000
215820,61996
215830,61990
215840,61990
215849,61990
215859,61977
215870,61995
215880,61976
215890,61977
215900,61975
215910,61959
215920,61941
215930,61945
215981,61987
215989,61974
215999,61977
216009,61983
216020,61995
216030,61998
216040,61980
216049,61985
216059,61995
216070,62046
216081,62026
216089,62012
216100,62034
216133,61960
216158,62004
216171,62024
216200,62019
216210,61988
216219,62002
216229,61991
216240,62013
216250,62024
216259,61989
216270,62021
216280,62017
216290,62019
216299,61984
216310,62013
216320,62002
216330,62004
216339,61995
216350,62004
216360,61977
216370,62001
216380,62029
216391,61989
216401,61995
216411,61995
216420,61974
216430,61993
216440,61978
216450,61991
216461,61978
216471,61990
216504,62001
216511,62014
216521,61994
216530,61978
216540,61978
216550,61979
216560,61978
216570,61984
216581,61985
216591,61966
216601,61984
216611,61982
216620,61960
216630,61970
216640,61977
216650,61990
216661,61958
216671,61966
216681,61968
216691,61967
216700,61994
216710,61989
216741,61936
216750,61999
216782,61987
216792,61981
216801,61986
216831,62060
216840,61980
216850,61978
216861,62004
216871,62012
216900,62010
216912,62002
216920,61980
216930,61966
216940,61964
216950,61961
216960,61972
216970,61968
216981,62011
216991,62005
217001,61985
217011,61986
217020,61951
217030,61967
217040,61970
217050,61968
217061,61990
217071,62005
217081,61986
217091,61973
217100,61961
217110,61974
217120,61974
217130,61969
217141,61964
217151,61972
217161,61973
217171,61949
217181,61950
217191,61950
217201,61946
217211,61936
217222,61937
217231,61920
217241,61917
217251,61923
217262,61905
217271,61908
217305,61908
217311,61886
217321,61911
217331,61890
217363,61902
217372,61888
217402,61905
217413,61907
217442,61895
217473,61926
217481,61921
217491,61929
217502,61935
217511,61946
217521,61952
217531,61934
217542,61963
217551,61948
217561,61950
217571,61943
217582,61947
217592,61986
217601,61992
217611,61959
217622,61988
217631,61976
217641,61964
217651,61986
217662,61996
217671,61986
217682,61985
217712,61977
217722,61984
217731,62011
217741,61975
217751,61988
217761,61993
217771,61995
217781,62000
217791,61985
217801,61990
217811,61989
217822,62033
217831,62002
217841,62014
217851,62011
217862,62041
217871,62029
217881,62059
217891,62047
217902,62051
217912,62045
217922,62042
217932,62040
217942,62062
217952,62056
217962,62044
217972,62063
218003,62025
218015,62050
218046,62007
218084,62027
218093,62029
218132,61969
218167,61941
218174,61958
218182,61936
218192,61955
218202,61946
218212,61962
218222,61933
218232,61952
218242,61978
218252,61979
218262,61963
218272,61975
218282,61980
218292,61975
218302,61982
218312,61994
218322,61996
218332,61989
218342,61978
218352,61988
218362,61990
218372,61999
218382,61968
218392,61984
218402,61974
218412,61981
218423,61999
218432,61979
218442,61973
218453,62004
218462,61980
218472,61969
218502,61995
218513,61936
218523,61994
218532,61953
218542,61959
218552,61950
218562,61961
218572,61960
218582,61955
218617,61940
218623,62007
218633,62030
218665,62008
218693,62022
218705,62024
218713,62018
218723,62006
218734,62027
218743,62026
218754,62014
218763,62016
218774,62014
218784,62023
218793,62020
218804,62006
218813,62001
218823,61998
218834,62001
218843,62006
218854,61992
218863,61987
218874,61996
218906,61955
218914,62001
218923,61982
218934,61972
218943,61962
218954,61948
218963,61956
218974,61949
218983,61941
218994,61967
219003,61959
219014,61968
219023,61953
219034,61961
219044,61958
219053,61958
219063,61971
219074,61965
219083,61961
219094,61962
219103,61966
219114,61964
219123,61959
219134,61957
219143,61933
219154,61963
219163,61947
219174,61974
219184,61942
219193,61939
219204,61931
219234,61900
219246,61942
219254,61951
219287,61922
219315,61931
219325,61946
219357,61961
219363,61953
219395,61920
219403,61945
219414,61960
219423,61958
219434,61964
219443,61951
219454,61941
219464,61946
219474,61945
219485,61936
219494,61947
219504,61956
219514,61950
219525,61945
219534,61944
219544,61935
219555,61936
219564,61943
219574,61948
219584,61929
219594,61931
219604,61933
219614,61940
219625,61936
219634,61937
219645,61925
219654,61938
219664,61932
219674,61943
219706,61928
219715,61893
219724,61898
219734,61922
219744,61905
219754,61914
219765,61909
219774,61897
219784,61899
219794,61880
219805,61887
219814,61869
219824,61877
219834,61852
219845,61872
219854,61840
219864,61876
219874,61829
219885,61862
219894,61821
219925,61834
219936,61846
219967,61821
219974,61825
219985,61838
220014,61856
220025,61879
220034,61842
220044,61826
220054,61851
220065,61847
220074,61824
220086,61858
220116,61874
220125,61851
220134,61847
220144,61857
220154,61851
220165,61880
220175,61878
220185,61895
220194,61890
220205,61907
220216,61901
220224,61903
220274,61927
220286,61926
220295,61917
220305,61929
220316,61929
220326,61923
220335,61937
220345,61943
220355,61965
220365,61938
220376,61943
220385,61935
220395,61966
220405,61967
220416,61972
220425,61969
220435,61961
220445,61985
220455,61970
220465,61950
220475,61969
220485,61969
220495,61969
220505,61980
220536,61987
