elapsed_ms,ir
49942,115842
49952,115932
49962,115987
49972,116103
49982,116239
49992,116342
50002,116420
50012,116423
50022,116338
50032,116185
50042,116017
50052,115776
50062,115509
50072,115287
50082,115088
50092,114946
50102,114879
50112,114860
50122,114839
50132,114830
50142,114803
50152,114802
50162,114834
50172,114835
50182,114775
50192,114711
50202,114617
50212,114527
50222,114310
50232,114060
50242,113784
50252,113547
50262,113338
50272,113179
50282,113026
50292,112887
50302,112714
50312,112533
50322,112320
50332,112128
50342,111972
50352,111895
50362,111798
50372,111790
50382,111760
50392,111758
50402,111738
50412,111719
50422,111660
50432,111661
50442,111642
50482,111906
50515,112245
50522,112077
50532,111957
50543,111818
50552,111636
50563,111556
50572,111507
50583,111603
50592,111606
50603,111605
50612,111410
50623,111249
50632,111041
50643,110938
50652,110844
50663,110853
50672,110895
50683,110991
50692,111066
50703,111040
50712,110955
50723,110881
50732,110778
50743,110622
50753,110529
50763,110374
50773,110181
50782,109951
50793,109722
50802,109476
50813,109211
50822,109009
50833,108997
50843,109174
50853,109477
50863,109782
50873,110028
50883,110258
50893,110318
50903,110310
50913,110246
50923,110205
50933,110154
50943,110164
50953,110129
50963,110084
50973,109906
50983,109705
50993,109451
51003,109275
51013,109211
51047,109503
51083,109543
51124,109501
51133,109667
51143,109910
51154,110133
51163,110346
51173,110546
51183,110671
51193,110680
51203,110606
51213,110496
51223,110347
51233,110211
51243,110171
51253,110192
51263,110270
51273,110401
51283,110364
51293,110103
51303,109689
51313,109262
51323,109044
51333,108935
51343,109008
51353,109245
51363,109572
51373,109946
51383,110197
51393,110312
51403,110359
51413,110290
51423,110225
51433,110179
51443,110157
51453,110139
51463,110120
51473,110079
51483,109994
51493,109816
51503,109592
51513,109269
51523,108898
51533,108551
51543,108226
51554,108003
51563,107829
51573,107847
51583,108010
51593,108265
51603,108637
51613,108985
51654,109571
51693,109203
51727,108979
51733,109023
51743,109048
51753,109121
51764,109212
51773,109265
51783,109280
51793,109251
51804,109263
51813,109141
51823,109036
51833,108961
51844,108971
51853,108988
51863,109002
51873,108915
51884,108807
51893,108638
51903,108589
51913,108522
51924,108574
51934,108634
51943,108725
51953,108883
51964,108937
51973,109001
51983,108964
51994,108861
52004,108732
52013,108636
52023,108595
52034,108583
52043,108688
52053,108741
52064,108843
52073,108876
52083,108799
52094,108674
52104,108542
52113,108453
52123,108337
52133,108235
52184,108211
52193,108195
52203,108199
52213,108227
52224,108199
52234,108230
52244,108268
52254,108317
52264,108389
52274,108434
52284,108447
52294,108446
52303,108469
52314,108364
52323,108369
52333,108322
52343,108310
52355,108238
52364,108268
52373,108228
52383,108222
52393,108269
52427,108464
52434,108488
52465,108538
52470,108235
52473,108416
52485,108140
52524,107733
52533,107681
52543,107640
52553,107534
52564,107455
52573,107314
52583,107262
52593,107279
52604,107320
52613,107336
52623,107330
52633,107240
52644,107156
52653,107037
52663,106927
52673,106911
52684,106907
52693,106922
52703,106928
52713,106908
52724,106876
52733,106764
52743,106697
52754,106622
52764,106646
52773,106650
52783,106646
52793,106620
52804,106680
52813,106636
52823,106586
52834,106523
52843,106363
52853,106208
52863,106077
52873,106012
52883,106017
52894,106059
52903,106031
52913,105998
52923,105956
52934,105916
52943,105839
52953,105828
52963,105843
52974,105896
52983,105914
52993,105977
53003,105975
53014,105944
53023,105825
53056,105728
53066,105183
53104,105203
53115,105251
53156,105231
53166,105170
53204,105198
53213,105151
53223,105098
53233,105049
53243,105109
53254,105187
53263,105174
53274,105296
53283,105273
53293,105304
53303,105286
53313,105239
53323,105174
53334,105104
53343,104980
53353,104933
53363,104967
53374,105069
53383,105111
53393,105153
53403,105147
53414,105083
53423,104927
53433,104781
53443,104654
53454,104622
53463,104578
53473,104669
53483,104763
53494,104864
53503,104887
53513,104891
53523,104808
53534,104717
53543,104503
53576,104384
53584,104526
53593,104552
53604,104637
53613,104569
53624,104552
53633,104404
53644,104352
53653,104267
53664,104320
53700,104311
53704,104455
53734,104291
53744,104200
53777,104048
53809,103979
53814,103824
53825,103700
53853,103505
53863,103595
53874,103748
53883,103814
53894,103873
53903,103841
53913,103823
53924,103645
53933,103516
53944,103394
53984,103476
53994,103523
54003,103555
54014,103529
54025,103519
54033,103506
54044,103493
54055,103492
54064,103487
54074,103454
54084,103424
54095,103385
54104,103335
54114,103318
54124,103343
54135,103340
54144,103359
54154,103397
54164,103400
54175,103369
54184,103312
54194,103269
54204,103249
54215,103189
54224,103176
54234,103177
54244,103181
54255,103204
54264,103217
54274,103226
54284,103227
54295,103076
54304,102866
54315,102654
54324,102482
54334,102489
54345,102503
54415,102582
54425,102518
54458,102412
54494,102531
54505,102581
54514,102559
54524,102427
54535,102319
54545,102268
54555,102203
54565,102214
54574,102244
54585,102308
54594,102257
54604,102147
54615,101955
54624,101692
54634,101328
54644,100939
54694,99122
54705,98751
54715,98312
54725,97795
54734,97215
54745,96526
54756,95899
54764,95205
54774,94500
54784,93904
54794,93387
54805,92945
54814,92618
54824,92364
54834,92132
54844,91808
54854,91509
54864,91143
54875,90774
54926,88762
54934,88301
54944,87819
54954,87256
54964,86654
54975,86268
54984,85866
54994,85680
55004,85726
55015,86016
55024,86300
55034,86583
55044,86860
55055,87059
55064,87066
55074,87005
55084,86957
55095,86837
55104,86757
55114,86649
55124,86553
55134,86543
55145,86480
55186,85742
55195,85508
55204,85392
55214,85438
55224,85590
55234,85747
55244,85942
55254,86365
55265,86785
55274,87323
55284,87883
55294,88550
55305,89206
55314,90090
55324,91259
55335,92807
55344,94729
55354,96924
55364,99056
55374,101206
55416,107801
55425,109102
55455,113204
55496,120773
55505,122883
55514,125154
55524,127409
55535,129671
55544,131803
55585,139449
55594,141006
55604,142342
55615,143787
55624,145575
55634,147648
55644,149697
55654,151535
55664,153030
55674,154015
55684,154777
55694,155425
55705,156274
55714,157097
55724,157860
55735,158568
55744,159218
55754,159943
55764,160506
55774,160971
55785,161444
55794,161684
55804,161871
55815,162020
55824,162028
55834,162085
55844,161960
55854,161738
55865,161510
55874,161137
55884,160780
55895,160576
55904,160348
55914,160279
55924,160140
55934,160040
55944,159954
55979,159199
55986,158866
55994,158479
56035,157339
56046,157244
56075,156696
56085,156446
56126,154254
56136,153959
56144,153964
56154,154160
56164,154359
56175,154483
56184,154350
56194,154265
56204,154139
56214,153976
56225,153870
56234,153698
56244,153542
56254,153452
56265,153449
56274,153469
56284,153425
56295,153444
56304,153464
56315,153571
56324,153601
56334,153557
56345,153606
56385,153029
56394,152903
56404,152735
56414,152511
56425,152459
56434,152322
56444,152251
56455,152216
56464,151999
56475,151826
56484,151489
56494,150994
56505,150525
56514,149941
56525,149537
56534,149134
56544,148944
56554,148905
56564,148905
56575,148965
56584,148859
56595,148786
56604,148605
56614,148469
56625,148403
56634,148220
56669,147024
56675,146344
56685,145793
56727,143918
56735,143449
56776,140227
56785,139049
56827,137227
56834,136901
56844,136562
56854,135878
56865,134884
56874,133515
56885,131983
56894,130405
56904,129101
56914,127964
56924,127035
56935,126237
56944,125690
56955,125271
56964,124832
56974,124454
56985,123997
56994,123544
57004,123059
57015,122649
57024,122156
57035,121670
57044,121255
57054,120898
57065,120495
57075,120117
57084,119820
57095,119538
57104,119328
57115,119124
57124,119123
57134,119304
57145,119505
57185,119534
57195,119096
57205,118569
57214,117966
57224,117622
57234,117254
57245,117023
57254,116971
57265,117058
57275,117122
57284,117043
57317,116264
57325,115973
57335,115794
57367,115841
57375,115984
57385,116101
57416,116560
57426,116685
57435,116913
57446,117161
57455,117505
57465,117892
57476,118362
57485,118824
57495,119258
57505,119622
57515,119916
57525,120204
57536,120452
57545,120736
57585,122198
57595,122680
57606,123207
57615,123694
57625,124095
57636,124378
57645,124536
57655,124609
57665,124613
57675,124582
57685,124546
57696,124500
57705,124501
57715,124516
57725,124536
57736,124546
57745,124546
57755,124541
57765,124602
57776,124727
57785,124912
57795,125182
57805,125407
57816,125410
57825,125309
57835,125211
57845,125194
57856,125209
57865,125237
57875,125357
57885,125502
57895,125605
57905,125636
57916,125587
57925,125526
57958,125561
57960,125650
57966,125706
57978,125920
58033,124546
58038,124500
58071,126423
58086,125864
58097,125588
58135,125589
58167,125811
58176,125683
58215,125346
58226,125382
58235,125430
58245,125560
58256,125707
58265,125830
58275,125945
58285,126002
58296,126064
58305,126093
58315,126133
58325,126182
58336,126240
58345,126239
58386,126194
58395,126108
58405,126029
58415,125929
58425,125857
58435,125883
58445,125863
58456,125801
58465,125758
58475,125755
58485,125799
58496,125776
58505,125783
58516,125646
58525,125517
58536,125325
58545,125208
58556,125064
58565,125020
58576,124963
58585,124984
58596,124944
58605,125004
58616,124931
58625,124834
58636,124617
58645,124497
58656,124401
58665,124450
58676,124510
58685,124662
58696,124763
58705,124882
58740,124898
58742,126029
58747,124850
58809,124808
58815,125758
58817,124420
58851,124398
58855,124361
58859,124414
58866,124434
58876,124529
58886,124577
58895,124631
58905,124605
58915,124482
58926,124394
58936,124286
58945,124314
58955,124349
58966,124423
58976,124468
58986,124473
58996,124374
59006,124320
59015,124174
59026,124009
59035,123923
59046,123837
59056,123783
59066,123672
59075,123607
59126,123067
59136,122873
59146,122738
59156,122546
59166,122391
59177,122206
59185,121995
59195,121798
59206,121579
59217,121385
59226,121150
59235,120980
59247,120923
59255,120886
59265,120943
59275,121071
59286,121242
59296,121334
59305,121458
59316,121643
59326,121776
59336,121898
59346,121946
59355,122141
59397,122681
59405,122756
59416,122838
59425,122838
59436,122921
59445,122944
59456,122991
59465,122999
59476,123045
59485,123002
59496,122995
59505,122896
59516,122776
59525,122575
59536,122460
59545,122311
59587,122162
59595,122177
59606,122127
59615,122041
59625,122003
59636,122068
59645,122159
59656,122332
59665,122468
59676,122638
59685,122726
59696,122874
59705,122968
59715,123097
59725,123206
59735,123374
59745,123542
59755,123714
59765,123800
59775,123602
59785,123284
59795,122841
59805,122577
59815,122452
59825,122370
59835,122349
59845,122373
59855,122415
59865,122399
59899,122244
59937,122204
59947,122349
59986,121770
60027,121678
60036,121679
60045,121548
60055,121443
60065,121319
60075,121240
60085,121207
60095,121232
60105,121291
60115,121391
60125,121431
60135,121388
60145,121216
60155,121005
60165,120734
60175,120524
60185,120379
60195,120275
60205,120203
60215,120148
60225,120001
60235,119885
60245,119738
60255,119578
60265,119375
60275,119186
60285,119276
60295,119354
60305,119467
60315,119473
60325,119561
60335,119595
60345,119541
60387,118372
60396,118314
60405,118311
60415,118375
60426,118394
60435,118352
60445,118273
60455,118188
60467,118140
60476,118158
60487,118223
60496,118301
60507,118351
60516,118400
60527,118416
60567,118067
60607,118057
60617,118049
60658,117711
60667,117644
60676,117524
60687,117453
60696,117337
60707,117315
60716,117266
60727,117256
60736,117222
60747,117238
60787,117199
60796,117221
60807,117153
60816,117152
60827,117149
60836,117137
60847,117124
60856,117139
60867,117145
60876,117125
60887,117121
60896,117189
60907,117218
60916,117299
60927,117324
60936,117302
60947,117257
60956,117221
60966,117222
60976,117280
60986,117403
60996,117510
61006,117594
61016,117668
61026,117691
61036,117637
61046,117605
61056,117580
61066,117626
61076,117648
61086,117673
61096,117720
61106,117736
61116,117710
61126,117686
61136,117654
61146,117639
61212,117830
61216,117904
61221,117885
61229,117902
61261,117868
61270,118083
61279,118115
61287,118184
61318,118058
61327,117952
61337,117794
61346,117651
61356,117607
61366,117635
61376,117716
61386,117810
61396,117771
61406,117693
61416,117631
61426,117551
61436,117436
61446,117361
61456,117314
61466,117359
61476,117381
61486,117358
61496,117350
61506,117400
61516,117397
61526,117468
61536,117530
61546,117651
61587,117791
61596,117916
61606,117956
61616,117838
61626,117662
61636,117538
61646,117508
61656,117399
61666,117333
61676,117279
61686,117287
61696,117358
61706,117399
61716,117424
61726,117443
61736,117455
61746,117487
61756,117529
61766,117528
61776,117522
61786,117516
61796,117562
61806,117587
61816,117561
61826,117543
61836,117543
61869,117470
61877,117431
61918,116962
61927,116974
61959,117538
61999,117459
62008,117445
62098,117189
62108,117198
62117,117316
62126,117368
62136,117458
62146,117465
62156,117512
62166,117491
62176,117490
62186,117350
62196,117181
62206,116962
62216,116881
62226,116911
62236,117046
62246,117155
62257,117298
62266,117337
62276,117378
62286,117303
62296,117217
62306,117156
62316,117171
62326,117131
62336,117159
62346,117172
62401,117384
62408,117479
62416,117598
62426,117602
62436,117572
62446,117438
62456,117362
62466,117235
62476,117245
62486,117231
62496,117295
62506,117353
62516,117381
62526,117331
62536,117298
62546,117251
62556,117251
62566,117183
62576,117129
62586,117063
62596,117005
62648,116844
62656,116922
62708,116458
62759,116271
62766,116159
62818,115811
62827,115806
62836,115765
62846,115751
62856,115697
62866,115674
62876,115665
62886,115620
62896,115605
62906,115613
62916,115651
62926,115577
62936,115521
62946,115450
62956,115413
62966,115338
62976,115328
62986,115323
62996,115350
63006,115297
63016,115226
63026,115134
63036,115063
63046,114980
63056,114939
63066,114930
63076,114882
63086,114812
63096,114739
63106,114633
63116,114583
63126,114484
63136,114424
63146,114417
63201,114320
63207,114234
63216,114167
63226,114152
63236,114152
63246,114189
63256,114235
63307,114202
63318,114143
63372,114265
63419,114311
63429,114633
63436,114610
63447,114704
63456,114692
63467,114789
63477,114769
63486,114703
63496,114613
63507,114668
63516,114654
63526,114657
63536,114758
63547,114839
63557,114918
63567,114982
63577,114981
63587,115014
63597,115029
63607,115040
63617,115028
63627,115033
63637,115023
63646,115032
63658,115100
63668,115105
63717,114948
63726,114912
63736,114855
63746,114845
63757,114827
63767,114884
63777,114864
63787,114886
63796,114879
63806,114810
63818,114712
63826,114629
63837,114560
63846,114491
63857,114536
63868,114576
63877,114582
63888,114569
63896,114557
63907,114535
63916,114579
63926,114622
63937,114684
63947,114775
63957,114730
64009,114922
64018,114946
64070,114801
64078,114766
64087,114647
64097,114586
64107,114545
64117,114535
64127,114471
64137,114427
64147,114385
64157,114324
64167,114258
64177,114177
64187,114105
64197,114038
64207,113978
64217,113948
64227,113882
64237,113863
64247,113823
64257,113787
64267,113741
64277,113689
64287,113668
64297,113634
64307,113614
64317,113585
64327,113613
64337,113630
64347,113673
64398,113591
64407,113572
64417,113596
64427,113584
64437,113584
64447,113541
64457,113553
64509,114105
64518,113639
64527,113570
64579,113769
64588,113868
64638,113721
64647,113745
64657,113802
64667,113853
64678,113946
64688,114022
64698,114074
64708,114094
64717,114118
64727,114120
64737,114150
64747,114197
64798,114503
64809,114486
64818,114538
64827,114602
64837,114690
64847,114754
64857,114783
64867,114805
64878,114777
64888,114743
64898,114674
64908,114658
64917,114679
64927,114687
64937,114689
64947,114664
64958,114618
64968,114607
64978,114591
64988,114573
64997,114571
65007,114562
65017,114569
65027,114613
65038,114644
65048,114725
65058,114822
65068,114881
65077,114870
65087,114661
65097,114389
65107,114225
65118,114185
65128,114187
65138,114226
65148,114232
65201,114777
65207,114527
65260,114261
65269,114250
65277,114180
65330,113871
65338,113727
65383,113623
65397,113557
65408,113381
65417,113353
65427,113212
65437,113098
65447,113006
65457,112990
65467,113005
65478,113029
65488,113059
65498,113095
65508,113107
65517,113106
65527,113164
65537,113270
65547,113392
65598,113133
65607,113113
65617,113045
65627,112998
65637,112947
65647,112929
65657,112949
65667,113006
65678,113076
65688,113162
65698,113210
65708,113181
65717,113025
65727,112857
65737,112659
65747,112453
65758,112371
65768,112302
65778,112186
65788,112040
65797,111758
65808,111438
65818,111075
65828,110742
65837,110454
65848,110343
65858,110373
65868,110515
65877,110592
65888,110645
65898,110403
65944,110110
65958,108579
65969,108173
66014,107762
66068,116005
66078,114648
66123,108419
66129,107636
66177,107365
66180,112040
66224,106051
66238,122192
66287,125727
66291,110515
66297,127758
66307,127656
66318,128329
66328,129867
66338,132398
66348,135929
66402,158963
66408,161852
66417,163481
66427,164478
66438,165502
66448,166600
66458,167743
66468,168707
66477,169454
66488,170120
66498,170573
66508,170796
66517,170935
66528,171033
66538,171176
66548,171442
66557,171805
66568,172299
66578,172848
66588,173261
66597,173609
66608,174125
66618,175099
66628,175876
66637,176564
66648,177556
66658,178827
66668,180630
66677,182803
66688,184131
66698,184632
66708,184746
66717,184486
66728,184066
66738,183627
66748,183203
66810,179259
66859,178798
66868,178902
66918,179171
66968,179917
66977,180165
66987,180537
66997,180902
67007,181336
67017,181900
67027,182673
67037,183536
67047,184536
67057,185527
67067,186516
67079,187388
67089,188191
67099,188899
67109,189619
67118,190337
67129,191067
67139,191842
67149,192584
67202,197104
67209,198026
67218,198861
67229,199594
67239,200193
67249,200768
67259,201320
67269,201804
67278,202244
67288,202691
67299,203073
67309,203408
67318,203685
67329,203815
67339,203834
67349,203694
67359,203393
67369,202978
67379,202558
67389,202196
67398,201914
67409,201792
67419,201953
67429,202292
67438,202614
67449,202816
67459,202966
67519,203561
67569,203636
67621,204442
67628,204614
67679,205831
67690,206187
67698,206592
67708,207120
67719,207647
67728,208036
67739,208342
67749,208588
67758,208809
67769,208971
67779,209153
67789,209360
67798,209687
67809,209965
67819,210250
67829,210496
67838,210659
67849,210872
67859,211056
67869,211150
67878,211205
67889,211244
67899,211260
67909,211330
67918,211351
67929,211448
67939,211530
67949,211633
68000,211745
68008,211783
68018,211730
68029,211713
68038,211579
68049,211485
68059,211374
68069,211291
68078,211259
68088,211230
68098,211256
68108,211336
68119,211420
68171,210872
68223,211008
68229,211056
68238,210916
68249,210813
68258,210842
68269,210942
68279,211057
68289,211148
68298,211256
68308,211351
68318,211441
68328,211585
68338,211731
68348,211929
68360,212186
68370,212426
68379,212613
68388,212872
68398,213075
68409,213270
68418,213406
68429,213459
68438,213517
68449,213507
68458,213489
68500,212721
68509,212328
68518,211742
68528,211028
68539,210221
68548,209393
68559,208451
68569,207438
68579,206166
68588,204781
68599,203303
68609,201844
68618,200570
68628,199192
68638,197979
68648,197035
68658,196219
68669,195359
68679,194621
68689,194176
68699,193697
68708,193299
68718,193038
68728,192777
68739,192533
68799,192090
68848,192226
68858,193729
68870,194056
68920,192458
68930,191995
68938,191645
68948,191509
68958,191458
68968,191590
68978,191697
68988,191798
68998,191848
69008,191893
69018,191942
69028,191931
69038,191995
69048,192081
69058,192224
69068,192421
69078,192660
69088,192920
69098,193141
69108,193335
69118,193568
69128,193789
69138,193971
69148,194146
69198,195610
69208,195907
69218,196216
69228,196556
69238,196955
69248,197239
69258,197513
69268,197638
69278,197801
69288,197923
69298,197946
69308,197848
69318,197887
69329,197977
69338,197990
69349,198092
69358,198123
69369,198203
69421,193141
69429,198091
69480,197973
69488,197908
69499,197861
69550,197894
69561,197929
69569,198089
69621,199793
69629,199714
69639,199770
69648,199815
69659,200107
69668,200364
69678,200667
69689,201065
69698,201349
69709,201704
69718,201949
69729,202376
69738,202682
69749,202997
69758,203107
69769,203320
69778,203445
69789,203629
69798,203633
69809,203703
69818,203651
69829,203634
69838,203568
69849,203599
69858,203574
69869,203616
69878,203463
69889,203352
69898,203087
69909,202929
69918,202802
69929,202769
69938,202751
69949,202741
70000,202540
70009,202607
70019,202690
70028,202627
70039,202536
70048,202523
70059,202563
70109,203321
70120,203303
70172,202653
70178,202404
70264,202200
70274,201396
70281,201248
70329,200442
70339,200181
70349,199923
70400,199373
70409,199399
70419,199425
70429,199418
70439,199392
70449,199354
70459,199341
70469,199357
70479,199379
70489,199461
70500,199601
70509,199572
70519,199591
70530,199735
70539,199939
70549,200269
70559,200661
70569,201126
70580,201486
70589,201912
70599,202377
70610,202939
70619,203629
70629,204403
70639,205093
70650,205590
70659,206068
70669,206557
70679,207058
70690,207470
70699,207916
70710,208442
70719,208854
70730,209100
70739,209235
70749,209319
70802,209989
70810,210190
70819,210311
70829,210364
70881,210470
70888,210584
70945,210772
70992,210999
70999,211025
71009,211071
71020,211070
71029,211074
71039,211142
71050,211198
71059,211294
71069,211400
71079,211521
71090,211651
71099,211742
71109,211815
71119,211891
71130,211949
71139,211961
71149,211967
71201,212100
71211,212155
71220,212172
71229,212208
71240,212180
71249,212175
71260,212268
71269,212292
71279,212276
71290,212210
71299,212065
71309,212001
71319,211975
71330,211956
71339,212028
71349,212078
71359,212132
71370,212172
71379,212287
71389,212338
71399,212365
71410,212334
71419,212385
71429,212439
71439,212397
71450,212308
71459,212269
71469,212206
71479,212097
71490,212014
71540,211385
71550,211250
71561,211127
71652,209257
71661,209080
71705,208919
71719,208649
71730,208646
71739,208620
71750,208600
71759,208581
71770,208600
71779,208578
71790,208612
71800,208646
71809,208657
71819,208624
71829,208607
71839,208556
71849,208476
71859,208431
71869,208418
71879,208474
71889,208498
71900,208574
71909,208615
71919,208671
71929,208682
71940,208728
71949,208676
72002,208959
72010,208947
72019,208982
72029,209036
72039,209143
72049,209310
72060,209535
72069,209785
72079,210055
72089,210354
72100,210778
72109,211233
72119,211779
72129,212160
72140,212586
72149,212981
72159,213147
72169,213306
72179,213326
72189,213278
72199,213224
72209,213140
72220,213122
72271,214162
72281,214474
72330,215575
72340,215819
72393,216517
72401,216500
72451,216027
72461,215719
72469,215372
72480,215111
72489,214776
72499,214519
72509,214303
72519,214100
72529,213812
72540,213575
72549,213265
72559,212945
72569,212547
72579,212184
72589,211926
72599,211707
72609,211489
72620,211320
72629,211043
72639,210786
72649,210562
72660,210371
72669,210060
72679,209799
72689,209586
72700,209380
72709,209065
72719,208894
72729,208805
72740,208711
72749,208547
72800,208102
72812,207955
72819,207781
72829,207711
72839,207721
72850,207879
72859,207976
72870,208203
72879,208288
72889,208349
72951,208586
72961,208733
72970,208911
72979,209003
72990,209140
72999,209220
73010,209322
73019,209372
73029,209458
73040,209610
73049,209561
73060,209698
73069,209848
73080,210083
73089,210210
73099,210330
73109,210481
73119,210561
73130,210724
73140,210856
73149,210929
73160,210993
73169,211105
73180,211290
73190,211445
73200,211664
73250,212726
73260,212794
73270,212889
73279,212916
73290,212990
73299,212984
73309,212996
73320,212962
73329,213010
73341,213048
73350,213152
73360,213253
73369,213347
73379,213488
73390,213573
73400,213502
73410,213463
73419,213402
73429,213373
73440,213413
73452,213507
73459,213571
73470,213613
73521,213780
73572,213984
73581,213988
73591,213993
73639,213944
73652,214207
73704,214487
73710,214679
73719,214767
73731,214824
73740,214864
73750,214845
73760,214862
73770,214870
73781,214864
73790,214839
73801,214816
73810,214841
73820,214843
73831,214851
73840,214810
73851,214702
73860,214567
73870,214365
73880,214175
73890,213965
73901,213708
73910,213405
73921,213192
73930,212964
73940,212800
73951,212628
74002,210882
74012,210505
74020,210228
74031,209910
74040,209568
74050,209182
74060,208700
74071,208285
74080,207911
74090,207553
74101,207218
74110,206859
74120,206643
74131,206652
74140,206822
74150,207087
74160,207272
74170,207288
74180,207028
74191,206644
74200,206243
74210,205935
74221,205703
74273,204672
74283,204488
74330,204739
74384,204335
74390,204094
74402,203523
74486,206652
74491,203099
74501,203069
74511,203092
74555,203847
74561,204172
74610,205964
74620,206685
74630,207578
74640,208348
74650,208831
74660,209221
74671,209348
74680,209454
74690,209627
74701,209725
74710,209921
74720,210240
74731,210474
74740,210725
74750,210898
74803,210898
74812,210890
74820,210932
74830,211069
74840,211359
74851,211610
74860,211704
74870,211648
74880,211536
74890,211304
74900,210978
74911,210581
74920,210136
74930,209673
74940,209168
74950,208559
74960,207995
74970,207330
74980,206612
74991,205878
75000,205292
75010,204870
75021,204586
75030,204565
75040,204587
75051,204679
75060,204716
75070,204719
75080,204766
75090,204808
75100,204740
75150,204556
75155,210898
75160,203041
75244,202068
75248,211648
75253,201892
75260,201713
75310,201827
75320,201771
75331,201751
75340,201554
75350,201319
75361,201135
75370,200914
75380,200652
75391,200469
75400,200282
75410,200107
75421,200044
75430,199932
75440,199876
75450,199879
75460,199803
75471,199761
75480,199658
75490,199567
75501,199604
75510,199543
75520,199465
75531,199491
75540,199418
75550,199361
75601,199283
75612,199305
75622,199234
75631,199316
75640,199267
75651,199326
75660,199274
75670,199236
75681,199286
75690,199244
75700,199256
75711,199348
75720,199322
75730,199293
75741,199362
75750,199338
75760,199354
75771,199413
75780,199392
75790,199357
75801,199405
75810,199372
75862,199316
75912,199286
75964,199411
75970,199317
76022,199231
76031,199282
76041,199275
76051,199343
76060,199273
76070,199251
76081,199298
76090,199239
76100,199257
76111,199268
76120,199255
76130,199217
76141,199287
76150,199253
76160,199257
76171,199311
76180,199268
76190,199255
76201,199319
76210,199235
76220,199228
76231,199275
76240,199216
76250,199212
76261,199270
76270,199250
76280,199240
76291,199300
76300,199250
76310,199252
76321,199293
76330,199239
76340,199299
76351,199344
76403,199341
76413,199315
76421,199327
76430,199297
76441,199310
76450,199314
76461,199377
76517,199364
76521,199350
76572,199485
76617,199500
76632,199534
76640,199519
76651,199534
76661,199541
76671,199525
76682,199547
76691,199559
76701,199616
76712,199632
76721,199652
76731,199651
76742,199654
76793,199652
76802,199614
76811,199483
76821,199631
76831,199660
76841,199657
76851,199663
76861,199657
76872,199668
76881,199672
76891,199632
76902,199624
76911,199637
76922,199606
76931,199585
76941,199604
76952,199575
76961,199552
76971,199549
76982,199516
76991,199466
77001,199451
77012,199408
77021,199364
77031,199350
77042,199315
77051,199280
77061,199271
77072,199241
77081,199223
77091,199213
77102,199208
77111,199168
77121,199119
77132,199102
77182,198971
77192,199107
77243,199114
77294,199047
77301,199102
77313,199111
77365,199025
77371,199079
77381,199071
77391,199063
77402,199053
77411,199069
77421,199078
77432,199063
77441,199088
77451,199101
77462,199095
77471,199106
77481,199130
77492,199130
77501,199121
77511,199104
77522,199125
77531,199115
77542,199123
77595,199091
77603,198983
77612,199162
77621,199141
77632,199144
77642,199123
77652,199114
77660,199131
77671,199111
77680,199074
77691,199116
77701,199115
77711,199074
77721,199063
77731,199014
77741,198996
77752,198965
77762,198946
77772,198950
77781,198882
77790,198895
77802,198878
77811,198882
77821,198887
77832,198875
77841,198886
77892,198904
77897,199123
77901,198890
77912,198854
77922,198859
77932,198872
77941,198879
77952,198870
77961,198891
77972,198824
77981,198848
77991,198842
78002,198871
78011,198818
78022,198778
78031,198847
78041,198851
78051,198838
78061,198843
78072,198825
78082,198820
78092,198827
78102,198779
78111,198824
78121,198832
78131,198807
78141,198862
78193,198901
78203,198881
78251,198855
78263,198887
78273,198947
78324,198934
78332,198937
78341,198981
78394,198957
78402,198953
78454,198987
78462,198901
78473,198869
78481,198885
78492,198905
78501,198878
78512,198898
78521,198869
78532,198865
78541,198827
78552,198819
78561,198785
78572,198790
78581,198775
78592,198799
78601,198800
78612,198829
78621,198812
78632,198834
78641,198838
78652,198835
78661,198824
78672,198814
78681,198778
78692,198809
78701,198772
78711,198771
78721,198764
78731,198780
78741,198783
78793,198770
78804,198802
78813,198786
78821,198772
78831,198739
78841,198765
78851,198772
78861,198785
78871,198776
78881,198780
78891,198768
78901,198757
78911,198763
78921,198772
78931,198752
78941,198754
78951,198772
78961,198767
79019,198723
79024,198719
79032,198705
79086,198671
79092,198743
79183,198659
79191,198606
79204,198657
79213,198609
79291,198754
79296,198397
79303,198381
79312,198359
79322,198339
79332,198327
79341,198273
79351,198257
79361,198256
79371,198251
79381,198251
79391,198228
79401,198234
79411,198198
79421,198239
79431,198197
79441,198213
79451,198201
79461,198200
79471,198158
79481,198171
79491,198157
79501,198147
79511,198141
79521,198135
79531,198140
79541,198125
79596,198043
79602,198106
79611,198068
79622,198077
79631,198056
79641,198034
79651,198025
79661,198007
79671,197979
79681,197965
79692,197961
79701,197931
79711,197889
79721,197879
79731,197857
79741,197836
79751,197786
79761,197741
79771,197643
79781,197602
79791,197540
79801,197539
79811,197503
79862,197521
79873,197441
79917,197425
79974,197406
80024,197318
80032,197311
80043,197103
80053,197286
80062,197231
80072,197182
80082,197163
80092,197174
80102,197142
80112,197160
80122,197149
80132,197149
80142,197138
80152,197145
80162,197140
80172,197130
80182,197127
80192,197127
80202,197123
80212,197133
80222,197147
80232,197169
80242,197140
80252,197130
80262,197121
80272,197112
80282,197119
80292,197135
80302,197153
80312,197158
80322,197149
80332,197133
80342,197138
80394,197265
80405,197187
80412,197111
80422,197165
80432,197177
80442,197159
80452,197174
80462,197182
80472,197176
80524,197271
80533,197211
80542,197230
80592,197321
80646,197226
80652,197239
80662,197282
80672,197266
80682,197260
80692,197261
80702,197237
80712,197243
80722,197236
80732,197209
80742,197159
80795,197135
80804,197080
80812,197008
80822,197009
80832,197008
80842,196983
80852,196975
80862,196984
80872,196974
80882,197000
80892,196974
80902,197015
80912,197008
80922,197016
80932,197044
80942,197045
80952,197054
80962,197059
80972,197051
80982,197046
80992,196979
81002,197004
81012,197037
81022,197068
81032,197021
81042,197064
81052,197048
81062,197040
81073,197013
81082,196992
81092,197027
81102,197034
81112,196989
81122,197042
81132,197049
81142,197054
81194,197076
81206,197083
81256,197069
81265,197103
81317,197090
81323,197126
81374,197100
81383,197133
81426,197111
81434,197126
81442,197125
81452,197124
81462,197109
81472,197095
81482,197068
81492,197028
81502,197035
81512,197041
81522,196983
81532,196961
81542,196959
81597,196851
81603,196869
81612,196869
81622,196850
81632,196852
81642,196834
81652,196837
81662,196839
81672,196864
81682,196848
81692,196824
81702,196829
81712,196858
81722,196847
81732,196854
81742,196840
81752,196858
81762,196817
81772,196817
81782,196821
81792,196839
81802,196806
81812,196800
81822,196815
81832,196818
81842,196796
81852,196767
81862,196766
81872,196789
81882,196734
81892,196730
81902,196709
81912,196731
81922,196683
81932,196694
81979,196705
82029,196708
82043,196706
82054,196733
82144,196787
82156,196793
82208,196733
82213,196746
82223,196746
82232,196692
82242,196688
82252,196687
82263,196725
82273,196695
82283,196695
82293,196658
82302,196597
82313,196568
82323,196549
82333,196554
82342,196467
82353,196505
82364,196509
82372,196433
82383,196475
82392,196430
82404,196532
82414,196529
82423,196529
82433,196535
82443,196504
82453,196538
82503,196527
82513,196568
82524,196556
82534,196503
82543,196560
82552,196488
82563,196586
82572,196504
82582,196507
82592,196501
82603,196545
82613,196554
82622,196509
82632,196488
82643,196592
82653,196546
82663,196502
82672,196499
82682,196519
82693,196584
82702,196510
82712,196503
82722,196516
82732,196528
82783,196650
82834,196725
82842,196671
82853,196708
82863,196709
82872,196700
82882,196701
82892,196704
82902,196722
82913,196713
82923,196707
82933,196710
82943,196732
82952,196729
82962,196740
82972,196742
82982,196738
82993,196715
83003,196702
83013,196689
83023,196674
83032,196679
83042,196669
83052,196650
83062,196663
83073,196668
83083,196642
83093,196649
83102,196660
83113,196652
83123,196643
83133,196661
83143,196662
83193,196770
83203,196746
83213,196739
83223,196715
83233,196734
83286,196740
83292,196632
83344,196714
83354,196674
83403,196708
83448,196718
83454,196762
83502,196712
83514,196726
83523,196744
83533,196711
83543,196718
83593,196765
83603,196749
83613,196743
83623,196748
83634,196732
83644,196715
83654,196731
83663,196733
83674,196731
83684,196716
83694,196720
83703,196719
83714,196710
83724,196690
83734,196687
83743,196656
83754,196632
83764,196620
83774,196609
83783,196622
83794,196627
83804,196613
83814,196608
83823,196570
83834,196574
83844,196566
83854,196553
83863,196551
83874,196554
83884,196536
83894,196553
83903,196576
83914,196595
83924,196595
83934,196599
83943,196601
83994,196631
84047,196613
84055,196672
84137,196712
84147,196572
84153,196612
84163,196647
84173,196649
84183,196646
84194,196636
84204,196649
84214,196639
84223,196639
84234,196608
84244,196624
84254,196630
84263,196635
84274,196630
84284,196641
84294,196645
84303,196651
84314,196640
84324,196657
84334,196649
84343,196650
84394,196659
84404,196674
84414,196694
84423,196707
84434,196691
84444,196706
84454,196706
84463,196682
84474,196711
84484,196687
84494,196646
84503,196674
84514,196627
84524,196628
84534,196619
84543,196582
84554,196590
84564,196561
84574,196564
84583,196557
84594,196547
84604,196550
84614,196509
84623,196515
84634,196533
84644,196534
84698,196447
84704,196537
84755,196500
84800,196506
84815,196554
84865,196524
84874,196525
84883,196523
84894,196530
84903,196508
84914,196553
84924,196583
84934,196599
84943,196579
84954,196629
84964,196649
84974,196654
84983,196650
84994,196693
85004,196706
85014,196705
85023,196686
85034,196737
85044,196715
85054,196737
85063,196708
85074,196735
85084,196739
85094,196734
85103,196700
85114,196731
85124,196743
85134,196723
85143,196692
85193,196647
85204,196688
85214,196662
85223,196642
85234,196688
85244,196671
85254,196671
85263,196604
85274,196655
85284,196661
85294,196644
85303,196586
85314,196607
85365,196485
85374,196492
85425,196489
85434,196509
85485,196461
85493,196456
85503,196484
85514,196528
85524,196539
85534,196511
85543,196434
85593,196441
85603,196446
85613,196456
85623,196452
85634,196486
85644,196464
85654,196450
85663,196402
85674,196437
85684,196457
85694,196466
85703,196429
85714,196494
85723,196446
85733,196469
85743,196478
85753,196465
85763,196503
85773,196474
85783,196477
85793,196501
85803,196509
85813,196542
85823,196544
85833,196504
85843,196494
85853,196502
85863,196520
85873,196507
85883,196517
85893,196532
85903,196540
85913,196546
85923,196570
85933,196553
85943,196563
86046,196545
86054,196511
86105,196534
86115,196549
86166,196517
86173,196464
86184,196504
86195,196491
86205,196489
86214,196492
86225,196486
86234,196488
86245,196486
86255,196468
86265,196462
86274,196476
86285,196476
86295,196505
86305,196518
86314,196563
86325,196602
86334,196614
86345,196645
86396,196538
86404,196606
86415,196582
86425,196567
86435,196568
86445,196554
86455,196535
86465,196515
86475,196527
86485,196510
86495,196481
86505,196484
86514,196471
86525,196457
86535,196456
86545,196479
86554,196507
86565,196549
86575,196612
86585,196705
86594,196789
86605,196869
86615,196933
86625,196984
86634,197017
86645,197055
86655,197081
86665,197074
86714,197026
86725,196960
86777,196727
86784,196741
86837,196532
86844,196578
86854,196544
86864,196540
86875,196521
86886,196532
86895,196527
86905,196543
86915,196528
86925,196534
86935,196530
86945,196520
86954,196552
86964,196521
86975,196522
86985,196519
86995,196521
87004,196549
87015,196498
87024,196508
87035,196470
87044,196474
87054,196417
87064,196435
87074,196429
87085,196458
87133,196514
87145,196517
87154,196522
87163,196510
87176,196490
87185,196442
87193,196463
87205,196419
87216,196432
87225,196441
87234,196464
87244,196464
87254,196454
87264,196460
87276,196461
87285,196451
87295,196467
87305,196465
87314,196472
87324,196461
87334,196496
87344,196470
87354,196475
87364,196456
87376,196439
87385,196418
87394,196432
87497,196406
87541,196445
87555,196354
87564,196326
87616,196190
87625,196079
87634,196060
87644,196056
87654,196048
87664,196065
87674,196023
87684,196033
87694,196025
87704,196019
87714,196013
87724,196009
87734,196005
87744,196008
87754,196013
87764,196028
87774,196037
87784,196033
87794,196046
87804,196050
87814,196035
87824,196042
87834,196046
87844,196033
87854,196051
87864,196024
87874,196046
87884,196051
87894,196063
87904,196042
87914,196043
87924,196041
87934,196051
87944,196015
87996,195995
88004,196043
88014,196062
88024,196036
88034,196053
88044,196055
88054,196048
88106,196084
88115,196030
88165,196042
88175,196052
88185,196076
88234,196084
88279,196079
88284,196045
88294,196080
88305,196088
88314,196038
88325,196028
88334,196000
88345,195992
88395,195841
88404,195878
88415,195922
88424,195816
88434,195846
88445,195890
88454,195861
88465,195865
88474,195853
88485,195896
88494,195859
88505,195888
88514,195820
88525,195893
88534,195848
88545,195905
88554,195855
88565,195892
88574,195845
88585,195893
88594,195833
88605,195892
88614,195830
88625,195861
88634,195813
88645,195852
88654,195790
88665,195842
88674,195785
88685,195819
88694,195774
88705,195830
88714,195774
88725,195822
88734,195735
88745,195840
88837,195882
88845,195824
88890,195814
88894,195905
88896,195885
88938,195910
88942,195845
88947,196008
88997,196089
89005,196049
89014,196041
89025,196068
89034,196037
89045,196037
89054,196009
89065,195982
89074,195961
89085,195940
89094,195897
89105,195923
89114,195887
89125,195880
89134,195876
89145,195865
89197,195872
89204,195900
89215,195895
89225,195892
89235,195914
89244,195908
89255,195906
89265,195906
89274,195907
89285,195914
89295,195889
89305,195888
89314,195906
89325,195907
89335,195897
89345,195901
89355,195903
89365,195899
89375,195890
89385,195904
89395,195873
89405,195886
89416,195901
89425,195903
89435,195909
89446,195911
89455,195925
89465,195922
89475,195910
89486,195937
89495,195914
89581,195987
89596,195967
89638,195999
89646,195851
89696,196001
89705,195982
89715,195972
89726,195962
89735,195968
89745,195952
89755,195964
89766,195960
89775,195940
89785,195916
89795,195904
89806,195852
89815,195850
89825,195838
89835,195825
89846,195808
89855,195795
89865,195746
89875,195753
89886,195749
89895,195722
89905,195718
89915,195723
89926,195690
89935,195682
89945,195698
89996,195598
90005,195727
90016,195717
90025,195729
90036,195701
90045,195704
90056,195711
90065,195727
90075,195720
90086,195720
90095,195709
90105,195699
90115,195706
90126,195710
90135,195705
90146,195702
90155,195715
90166,195714
90175,195723
90185,195720
90236,195681
90287,195711
90341,195725
90346,195736
90355,195698
90405,195747
90415,195724
90426,195711
90435,195672
90446,195669
90455,195658
90465,195669
90476,195660
90485,195691
90496,195687
90505,195664
90515,195671
90526,195649
90536,195623
90545,195626
90555,195591
90566,195566
90575,195571
90585,195574
90595,195529
90606,195516
90615,195518
90625,195457
90635,195496
90646,195460
90655,195459
90665,195422
90675,195407
90686,195444
90695,195465
90706,195442
90715,195404
90726,195439
90735,195461
90745,195432
90797,195453
90805,195447
90815,195450
90826,195436
90836,195432
90845,195449
90855,195439
90906,195435
90958,195376
90965,195417
91018,195443
91026,195436
91036,195491
91045,195426
91056,195475
91065,195482
91075,195484
91085,195493
91096,195516
91105,195526
91115,195523
91125,195504
91136,195544
91145,195530
91196,195527
91205,195508
91215,195506
91225,195552
91235,195512
91245,195520
91256,195551
91265,195523
91275,195535
91285,195492
91296,195493
91305,195468
91315,195445
91326,195441
91335,195404
91346,195409
91355,195368
91366,195363
91375,195283
91386,195295
91395,195253
91406,195273
91415,195254
91426,195279
91435,195258
91446,195297
91455,195249
91466,195275
91475,195250
91486,195285
91495,195261
91506,195277
91515,195287
91526,195305
91578,195302
91587,195336
91673,195348
91686,195360
91696,195271
91706,195385
91716,195355
91725,195318
91737,195397
91746,195346
91755,195323
91765,195332
91775,195321
91786,195405
91796,195367
91805,195338
91815,195332
91825,195332
91836,195380
91846,195394
91856,195327
91866,195362
91876,195372
91885,195309
91896,195362
91905,195272
91916,195363
91926,195321
91936,195332
91985,195226
91995,195228
92005,195204
92015,195170
92025,195156
92035,195111
92046,195162
92055,195103
92065,195023
92075,195021
92086,195082
92095,195043
92106,194995
92116,194965
92126,195002
92136,195033
92145,194912
92156,194985
92166,194954
92176,194987
92188,194980
92196,194943
92286,194973
92296,194960
92347,194951
92356,195013
92408,195026
92416,194967
92425,195008
92436,195033
92445,195013
92456,195046
92465,195057
92475,195058
92486,195050
92495,195044
92506,195082
92516,195060
92525,195063
92536,195039
92545,195040
92557,195068
92566,195070
92575,195065
92586,195064
92596,195059
92606,195054
92617,195067
92626,195061
92636,195054
92646,195072
92657,195081
92666,195081
92676,195068
92686,195065
92697,195070
92706,195065
92716,195074
92726,195084
92737,195065
92746,195028
92797,194962
92807,194930
92816,194915
92827,194894
92836,194882
92847,194869
92856,194853
92907,194824
92915,194831
92968,194848
93012,194862
93022,194881
93067,194869
93076,194880
93087,194870
93096,194867
93106,194887
93116,194901
93126,194895
93136,194910
93147,194906
93196,194980
93206,194988
93217,194995
93226,194996
93237,195009
93246,194971
93256,195003
93266,194989
93276,194995
93286,194990
93296,195009
93307,194981
93316,195006
93326,194982
93337,194978
93346,194984
93356,194962
93366,194972
93376,194973
93387,194987
93396,194974
93406,194964
93417,194950
93426,194990
93436,194975
93446,194981
93456,194983
93467,194957
93476,194962
93486,194965
93497,194966
93506,194964
93516,194940
93526,194890
93536,194856
93547,194824
93635,194995
93647,194503
93660,194546
93702,194563
93715,194724
93768,194926
93776,194896
93786,194983
93796,195051
93806,195098
93816,195176
93827,195242
93836,195258
93846,195326
93857,195296
93866,195311
93876,195341
93886,195332
93896,195384
93907,195426
93916,195462
93926,195526
93936,195506
93946,195594
93997,195562
94008,195496
94016,195507
94026,195506
94037,195497
94046,195474
94057,195487
94066,195459
94076,195464
94086,195451
94096,195432
94107,195443
94116,195420
94126,195421
94136,195408
94146,195420
94156,195434
94166,195403
94176,195314
94187,195253
94196,195176
94206,195122
94217,195127
94226,195091
94236,195109
94246,195110
94256,195117
94267,195121
94317,195105
94326,195097
94379,195080
94387,195076
94430,195154
94436,195195
94491,195732
94498,195831
94506,195871
94517,195922
94527,195950
94536,195967
94546,196014
94556,196112
94566,196187
94577,196404
94586,196579
94597,196926
94606,197183
94616,197607
94627,198236
94636,199221
94646,199618
94657,200085
94666,200349
94677,200711
94686,200834
94696,200978
94707,201187
94716,201309
94726,201470
94736,201698
94747,201943
94798,202322
94807,202333
94817,202370
94826,202378
94837,202562
94846,202694
94856,202835
94867,203021
94876,203103
94886,203463
94897,203849
94906,204073
94917,204372
94926,204442
94936,204388
94947,204515
94956,204587
94966,204880
94977,205186
94986,205349
94997,205607
95049,205384
95059,205240
95118,204920
95127,204878
95179,204672
95189,204684
95241,205215
95248,205300
95256,205249
95266,205260
95277,205346
95286,205411
95296,205583
95307,205830
95316,205950
95326,206132
95337,206395
95346,206541
95357,206794
95366,206905
95376,207013
95386,207131
95396,207240
95406,207400
95417,207587
95426,207635
95437,207765
95446,207787
95456,207900
95467,208076
95476,208181
95486,208404
95497,208611
95506,208832
95516,209012
95526,209197
95537,209345
95546,209431
95598,209896
95607,209810
95616,209745
95627,209753
95637,209753
95646,209852
95657,209897
95666,209873
95677,209796
95686,209746
95738,209156
95748,208796
95757,208335
95802,206640
95807,206515
95818,206388
95867,206358
95878,206592
95887,206851
95898,207015
95907,207077
95917,207020
95928,206893
95937,206801
95947,206825
96002,207659
96007,207503
96018,207311
96027,207020
96037,206797
96047,206680
96058,206679
96067,206813
96077,207027
96087,207237
96098,207379
96107,207455
96117,207427
96127,207199
96138,206909
96147,206532
96157,206048
96167,205479
96178,204778
96187,203979
96197,203231
96207,202543
96217,201729
96227,201073
96237,200711
96247,200569
96258,200601
96267,200930
96277,201603
96287,202434
96298,203281
96307,204055
96317,204575
96327,204768
96338,204711
96347,204420
96400,201972
96448,201735
96459,200959
96469,201045
96518,200645
96527,200434
96537,200300
96548,200107
96557,199989
96567,199897
96577,199756
96587,199682
96598,199530
96608,199422
96618,199301
96628,199252
96637,199190
96647,199131
96658,199098
96667,199025
96677,198991
96687,198948
96697,198874
96707,198831
96717,198812
96727,198684
96738,198690
96787,198534
96798,198501
96807,198511
96817,198559
96828,198459
96838,198491
96847,198515
96857,198485
96868,198494
96878,198540
96888,198597
96898,198590
96908,198665
96917,198729
96928,198752
96938,198821
96948,198913
96957,198962
96967,199037
96977,199113
96987,199181
96998,199280
97008,199355
97060,198690
97109,199614
97118,199546
97168,199611
97216,199653
97228,199922
97279,200182
97288,200268
97337,200436
97347,200465
97357,200451
97368,200412
97377,200381
97387,200351
97398,200340
97407,200349
97418,200346
97427,200354
97438,200334
97447,200322
97457,200334
97467,200372
97478,200383
97487,200382
97498,200381
97507,200381
97517,200358
97528,200375
97537,200373
97547,200336
97600,200323
97607,200306
97617,200268
97627,200279
97637,200296
97648,200334
97657,200350
97667,200318
97678,200292
97687,200265
97698,200270
97707,200237
97718,200275
97727,200247
97738,200281
97747,200268
97758,200268
97767,200211
97777,200216
97787,200219
97798,200242
97807,200183
97818,200164
97827,200103
97838,200110
97881,199986
97938,199993
97990,199995
98042,200064
98049,200153
98058,200146
98067,200215
98078,200248
98087,200198
98098,200247
98107,200206
98117,200208
98127,200179
98137,200168
98147,200140
98157,200127
98167,200131
98177,200146
98187,200144
98197,200142
98207,200121
98217,200124
98227,200125
98237,200145
98247,200149
98257,200128
98267,200108
98277,200106
98287,200131
98297,200153
98307,200174
98317,200165
98327,200162
98337,200158
98347,200135
98402,200168
98408,200171
98418,200195
98427,200102
98437,200107
98447,200101
98457,200108
98467,200116
98477,200098
98487,200089
98549,200085
98600,200074
98607,199999
98659,199881
98668,199926
98677,199856
98687,199839
98697,199817
98707,199813
98717,199820
98727,199829
98737,199776
98747,199761
98801,199854
98807,199696
98817,199723
98827,199709
98837,199731
98847,199726
98857,199722
98867,199738
98877,199744
98887,199743
98897,199720
98907,199732
98917,199687
98927,199653
98937,199655
98947,199638
98957,199618
98969,199610
98978,199607
98989,199637
98998,199659
99009,199649
99018,199651
99029,199629
99038,199636
99049,199627
99058,199619
99069,199602
99078,199586
99089,199604
99098,199606
99109,199606
99118,199588
99129,199556
99138,199524
99149,199528
99247,199493
99252,199428
99259,199482
99311,199370
99320,199376
99373,199213
99379,199199
99388,199217
99398,199222
99408,199249
99418,199253
99428,199270
99438,199262
99448,199264
99458,199283
99468,199283
99478,199272
99488,199242
99498,199253
99508,199237
99518,199241
99528,199248
99538,199285
99548,199291
99601,199383
99609,199210
99618,199162
99628,199164
99638,199199
99648,199190
99658,199201
99668,199205
99678,199154
99688,199146
99698,199156
99708,199153
99718,199171
99728,199167
99738,199163
99748,199169
99758,199173
99768,199171
99778,199171
99788,199201
99798,199184
99808,199164
99818,199145
99828,199145
99838,199150
99848,199164
99858,199158
99868,199156
99878,199147
99888,199157
99939,199136
99994,199083
100000,199077
100010,199015
100060,199021
100105,198927
100118,198819
100128,198801
100139,198835
100148,198833
100158,198856
100168,198870
100178,198879
100188,198877
100198,198909
100208,198876
100218,198879
100228,198855
100238,198833
100248,198829
100258,198840
100268,198826
100278,198820
100288,198832
100298,198824
100308,198773
100318,198768
100328,198741
100338,198741
100348,198733
100403,198697
100410,198696
100421,198677
100428,198674
100438,198688
100448,198689
100458,198709
100468,198684
100478,198715
100488,198700
100498,198685
100508,198638
100518,198659
100528,198666
100538,198647
100548,198649
100558,198675
100568,198681
100578,198656
100588,198656
100598,198670
100608,198641
100618,198611
100628,198587
100684,198583
100689,198591
100739,198508
100749,198475
100799,198369
100849,198274
100901,198178
100912,198221
100969,198169
100978,198148
100989,198130
100999,198140
101009,198115
101018,198069
101029,198095
101038,198051
101049,198108
101059,198084
101069,198064
101079,198071
101089,198043
101099,198039
101109,197997
101119,197961
101128,197964
101138,197944
101148,197934
101158,197940
101168,197914
101179,197969
101188,197893
101199,197882
101209,197934
101255,197965
101268,197911
101278,197879
101289,197890
101298,197842
101309,197862
101319,197875
101329,197885
101338,197805
101349,197795
101359,197790
101368,197775
101378,197806
101388,197813
101399,197874
101409,197825
101419,197844
101428,197755
101439,197827
101449,197821
101459,197820
101469,197672
101478,197693
101488,197667
101499,197685
101508,197625
101559,197574
101570,197510
101621,197438
101630,197467
101679,197301
101731,197415
101741,197409
101792,197331
101799,197323
101809,197324
101819,197293
101829,197292
101838,197250
101848,197239
101858,197238
101868,197260
101879,197265
101889,197240
101899,197226
101908,197212
101919,197230
101929,197262
101939,197280
101948,197265
101999,197252
102010,197280
102019,197274
102028,197279
102038,197295
102048,197290
102058,197284
102068,197303
102079,197276
102088,197269
102098,197276
102108,197280
102119,197289
102129,197287
102139,197276
102148,197265
102159,197266
102169,197244
102179,197224
102188,197221
102199,197194
102209,197205
102219,197192
102229,197194
102239,197178
102249,197138
102259,197100
102269,197102
102279,197073
102289,197056
102341,196932
102352,196908
102402,197276
102409,196838
102460,196818
102521,196783
102530,196722
102540,196779
102549,196793
102559,196792
102569,196757
102579,196749
102589,196729
102599,196732
102609,196707
102619,196705
102629,196715
102639,196696
102649,196694
102659,196689
102669,196676
102679,196698
102689,196676
102699,196689
102709,196684
102719,196667
102729,196671
102739,196671
102749,196661
102802,196547
102809,196607
102820,196603
102829,196592
102839,196601
102849,196584
102859,196567
102869,196540
102879,196550
102889,196537
102899,196534
102909,196518
102919,196507
102929,196522
102939,196500
102949,196480
102960,196482
102970,196434
102979,196374
102989,196368
103000,196325
103010,196302
103020,196284
103030,196294
103073,196208
103081,196195
103089,196135
103142,196191
103151,196173
103200,196220
103253,196522
103258,196266
103270,196275
103280,196259
103290,196245
103300,196255
103310,196259
103319,196244
103329,196250
103339,196258
103349,196257
103360,196234
103370,196233
103380,196241
103390,196251
103399,196244
103409,196253
103419,196251
103429,196250
103440,196238
103450,196243
103460,196246
103470,196246
103479,196245
103489,196255
103499,196255
103509,196255
103520,196226
103530,196236
103540,196236
103550,196247
103604,196281
103609,196295
103620,196290
103629,196289
103639,196267
103649,196276
103659,196289
103669,196285
103680,196252
103690,196235
103700,196253
103710,196242
103719,196244
103729,196188
103739,196176
103749,196178
103759,196140
103804,196144
103807,196246
103811,196082
103819,196052
103829,195991
103880,195916
103891,195927
103943,195862
103950,195903
103959,195893
104013,195879
104020,195852
104030,195855
104040,195893
104049,195855
104059,195850
104069,195849
104079,195826
104089,195818
104099,195812
104109,195802
104120,195804
104130,195815
104140,195809
104150,195796
104159,195760
104170,195796
104180,195788
104190,195793
104199,195782
104210,195767
104220,195791
104230,195779
104239,195786
104250,195789
104260,195798
104270,195800
104279,195783
104290,195806
104300,195800
104310,195798
104319,195778
104330,195783
104340,195767
104350,195774
104402,195734
104410,195745
104419,195734
104429,195733
104440,195744
104450,195744
104495,195744
104504,195594
104509,195602
104521,195601
104580,195377
104629,195414
104633,195783
104685,195348
104689,195389
104701,195355
104750,195331
104803,195744
104810,195314
104820,195316
104830,195300
104840,195298
104850,195292
104860,195278
104870,195272
104879,195198
104890,195257
104900,195247
104910,195250
104919,195158
104930,195275
104939,195213
104949,195179
104960,195235
104970,195234
104980,195232
104990,195238
104999,195170
105010,195245
105020,195225
105030,195220
105039,195169
105050,195204
105060,195208
105070,195199
105079,195149
105090,195209
105100,195194
105110,195192
105119,195131
105130,195174
105140,195190
105150,195165
105205,195067
105209,195081
105221,195087
105229,194984
105239,194940
105300,194888
105312,194865
105359,194837
105409,194834
105460,194908
105469,194904
105479,194864
105489,194891
105499,194906
105510,194900
105519,194869
105530,194877
105540,194836
105550,194865
105561,194887
105570,194848
105579,194828
105589,194826
105599,194839
105611,194820
105620,194830
105629,194829
105639,194783
105650,194815
105659,194822
105669,194817
105680,194859
105689,194824
105699,194811
105709,194847
105759,194802
105770,194820
105780,194812
105789,194833
105800,194804
105810,194814
105820,194804
105830,194790
105840,194818
105850,194819
105860,194803
105871,194804
105880,194803
105890,194785
105900,194786
105910,194786
105921,194778
105929,194760
105941,194745
105951,194705
105960,194671
105970,194676
105980,194635
105990,194625
106043,194449
106052,194491
106098,194491
106102,194807
106112,194452
106122,194415
106131,194422
106141,194432
106151,194451
106161,194439
106171,194449
106181,194443
106190,194451
106201,194463
106211,194434
106221,194452
106230,194476
106241,194471
106251,194450
106261,194469
106270,194480
106281,194471
106291,194464
106301,194464
106310,194455
106321,194459
106331,194436
106341,194429
106395,194373
106400,194280
106411,194421
106420,194435
106430,194416
106441,194446
106451,194436
106461,194415
106470,194445
106480,194432
106490,194434
106551,194492
106602,194395
106610,194483
106655,194416
106660,194457
106670,194469
106680,194450
106690,194462
106700,194458
106710,194432
106720,194407
106730,194397
106740,194387
106750,194376
106802,194329
106810,194308
106822,194290
106830,194303
106840,194303
106850,194312
106860,194314
106870,194306
106880,194323
106890,194311
106900,194308
106910,194318
106920,194325
106930,194329
106940,194348
106950,194328
106960,194329
106970,194332
106980,194353
106990,194346
107000,194358
107010,194350
107020,194349
107030,194366
107040,194336
107050,194346
107060,194342
107070,194353
107080,194337
107090,194351
107100,194350
107110,194344
107120,194341
107130,194354
107140,194364
107150,194361
107202,194384
107247,194388
107261,194382
107304,194332
107311,194384
107321,194366
107374,194374
107381,194407
107390,194405
107400,194401
107410,194367
107420,194367
107430,194349
107440,194334
107450,194299
107460,194261
107470,194236
107480,194196
107490,194191
107500,194140
107510,194099
107520,194069
107530,194022
107540,194005
107550,193951
107601,193898
107612,193941
107620,193871
107630,193899
107640,193878
107650,193912
107660,193929
107670,193926
107680,193943
107690,193937
107700,193930
107710,193934
107720,193935
107730,193957
107740,193944
107750,193970
107760,193928
107771,193989
107780,193942
107791,194004
107800,193940
107811,193974
107820,193914
107831,193968
107840,193852
107851,193911
107860,193803
107871,193885
107880,193801
107931,193906
107980,193858
107994,193892
108001,193840
108045,193866
108051,193870
108101,193865
108114,193884
108122,193891
108131,193883
108140,193858
108151,193891
108160,193831
108171,193891
108180,193845
108191,193871
108200,193841
108211,193850
108220,193826
108231,193808
108240,193799
108251,193783
108260,193740
108271,193764
108280,193732
108291,193704
108300,193730
108311,193717
108320,193733
108331,193720
108340,193711
108351,193730
108402,193577
108412,193726
108421,193730
108431,193736
108441,193742
108451,193737
108461,193729
108471,193740
108481,193751
108491,193735
108501,193724
108511,193709
108521,193691
108531,193701
108541,193684
108551,193687
108561,193680
108571,193664
108581,193677
108591,193648
108601,193675
108611,193652
108621,193663
108671,193713
108725,193669
108731,193717
108782,193654
108836,193688
108841,193618
108853,193663
108939,193677
108945,193635
108954,193648
108962,193660
108971,193657
108981,193641
108992,193648
109001,193622
109011,193575
109022,193573
109031,193573
109042,193553
109051,193559
109062,193550
109071,193550
109082,193537
109091,193531
109102,193501
109111,193525
109122,193514
109131,193504
109142,193507
109192,193520
109202,193506
109212,193523
109221,193505
109231,193533
109242,193536
109251,193516
109262,193514
109271,193516
109282,193526
109291,193505
109302,193537
109311,193522
109322,193539
109331,193515
109342,193522
109351,193513
109362,193521
109371,193518
109382,193517
109391,193549
109401,193538
109412,193544
109421,193562
109431,193556
109442,193543
109451,193589
109462,193533
109512,193570
109571,193623
109621,193596
109673,193586
109684,193653
109691,193648
109701,193666
109711,193657
109722,193671
109731,193654
109742,193690
109751,193695
109762,193678
109771,193652
109782,193648
109791,193638
109801,193631
109812,193622
109821,193584
109831,193567
109842,193554
109851,193556
109862,193554
109871,193529
109882,193535
109891,193517
109902,193530
109911,193512
109922,193507
109931,193505
109942,193512
109992,193524
110003,193528
110012,193505
110021,193556
110031,193547
110042,193549
110051,193535
110062,193550
110071,193540
110082,193557
110091,193562
110102,193586
110111,193560
110122,193574
110172,193556
110182,193558
110234,193564
110241,193558
110251,193552
110262,193576
110272,193624
110281,193535
110291,193547
110303,193566
110312,193634
110323,193628
110331,193583
110341,193577
110352,193587
110361,193603
110371,193610
110381,193585
110392,193647
110402,193662
110412,193608
110422,193671
110431,193609
110441,193585
110451,193595
110462,193673
110472,193658
110521,193598
110532,193669
110541,193597
110552,193667
110562,193661
110572,193639
110583,193630
110591,193548
110602,193555
110611,193570
110621,193558
110632,193641
110643,193639
110651,193597
110662,193620
110671,193584
110681,193591
110691,193596
110701,193584
110712,193627
110722,193601
110731,193570
110788,193576
110792,193595
110854,193593
110862,193522
110917,193518
110922,193600
110932,193622
110941,193587
110951,193601
110962,193636
110971,193615
110981,193611
110991,193623
111002,193622
111012,193623
111021,193633
111031,193643
111042,193667
111051,193672
111062,193666
111072,193672
111081,193661
111092,193661
111101,193675
111111,193675
111122,193663
111131,193681
111142,193674
111194,193592
111204,193683
111213,193711
111222,193719
111232,193688
111243,193704
111252,193690
111263,193695
111272,193694
111283,193686
111292,193673
111303,193660
111312,193646
111323,193657
111332,193617
111343,193621
111352,193621
111404,193541
111415,193503
111423,193503
111432,193423
111484,193390
111492,193433
111535,193375
111543,193453
111552,193432
111605,193686
111612,193461
111622,193458
111633,193438
111642,193471
111653,193458
111662,193473
111672,193477
111682,193473
111693,193472
111702,193450
111712,193437
111722,193440
111732,193446
111743,193452
111752,193470
111763,193450
111772,193451
111782,193444
111792,193442
111802,193462
111813,193448
111822,193446
111832,193450
111842,193456
111853,193466
111862,193480
111872,193471
111882,193489
111893,193503
111902,193502
111912,193526
111923,193511
111932,193540
111942,193529
111996,193554
112005,193561
112013,193564
112022,193556
112033,193575
112042,193552
112052,193555
112097,193562
112104,193561
112115,193555
112122,193486
112174,193427
112185,193451
112233,193440
112244,193404
112256,193457
112262,193432
112272,193401
112283,193417
112292,193478
112302,193417
112313,193473
112322,193495
112332,193476
112343,193468
112397,193474
112404,193568
112413,193550
112423,193548
112432,193591
112442,193578
112453,193592
112462,193592
112472,193602
112482,193575
112493,193581
112502,193603
112512,193593
112522,193582
112533,193609
112542,193609
112552,193630
112562,193616
112573,193633
112582,193630
112592,193637
112602,193630
112613,193640
112622,193669
112632,193655
112642,193666
112653,193684
112662,193685
112672,193694
112682,193679
112692,193652
112703,193686
112712,193668
112722,193661
112733,193718
112742,193721
112794,193707
112803,193726
112856,193621
112863,193641
112874,193653
112883,193595
112934,193528
112944,193521
112995,193474
113046,193501
113053,193527
113103,193562
113112,193571
113122,193584
113133,193579
113142,193593
113197,193535
113203,193545
113213,193588
113223,193585
113232,193527
113242,193568
113252,193533
113263,193619
113272,193593
113282,193556
113293,193636
113302,193587
113312,193589
113322,193622
113332,193595
113343,193663
113352,193613
113362,193586
113373,193659
113382,193601
113392,193599
113402,193613
113412,193584
113423,193676
113432,193636
113442,193604
113453,193676
113462,193598
113472,193583
113482,193623
113492,193618
113503,193664
113512,193639
113523,193662
113532,193637
113542,193628
113596,193674
113602,193612
113653,193558
113667,193548
113723,193473
113775,193512
113828,193441
113833,193491
113842,193509
113852,193545
113862,193522
113872,193537
113883,193556
113892,193586
113903,193572
113913,193583
113922,193583
113933,193576
113942,193535
113993,193505
114004,193588
114014,193562
114023,193619
114034,193609
114043,193622
114052,193639
114063,193633
114073,193647
114083,193658
114093,193668
114103,193654
114113,193665
114124,193668
114133,193671
114144,193679
114153,193694
114163,193679
114174,193700
114183,193693
114193,193707
114203,193727
114213,193727
114223,193719
114233,193713
114244,193722
114253,193730
114264,193743
114273,193732
114283,193740
114294,193735
114304,193723
114313,193734
114323,193749
114373,193730
114427,193654
114475,193656
114485,193562
114493,193403
114540,193509
114552,193605
114563,193563
114573,193582
114583,193582
114593,193559
114603,193577
114613,193584
114623,193564
114633,193602
114643,193590
114653,193596
114663,193611
114673,193608
114684,193621
114693,193613
114704,193599
114713,193615
114723,193614
114734,193599
114743,193581
114795,193551
114804,193550
114864,193535
114873,193529
114883,193520
114893,193549
114903,193543
114913,193527
114923,193551
114933,193577
114943,193564
114953,193583
114964,193576
114973,193562
114984,193563
114993,193558
115003,193595
115014,193575
115023,193558
115033,193593
115043,193577
115092,193602
115104,193556
115113,193560
115123,193569
115134,193555
115144,193523
115153,193501
115164,193482
115173,193468
115184,193432
115193,193465
115203,193441
115214,193414
115223,193413
115234,193388
115243,193401
115253,193394
115263,193325
115273,193409
115283,193384
115294,193373
115304,193370
115313,193406
115323,193395
115334,193383
115343,193442
115354,193445
115413,193473
115424,193446
115434,193445
115444,193485
115454,193509
115463,193478
115474,193498
115484,193441
115494,193487
115504,193482
115514,193500
115523,193508
115533,193489
115543,193514
115554,193506
115564,193516
115573,193560
115584,193529
115593,193540
115603,193531
115613,193533
115624,193562
115725,193607
115734,193611
115786,193632
115835,193565
115846,193620
115853,193619
115863,193568
115874,193640
115883,193586
115893,193524
115903,193537
115913,193523
115923,193493
115934,193534
115943,193495
115995,193453
116004,193495
116013,193466
116023,193443
116034,193519
116043,193453
116054,193534
116063,193485
116073,193473
116083,193451
116094,193501
116103,193487
116113,193476
116124,193551
116133,193546
116143,193514
116154,193610
116163,193597
116173,193612
116183,193561
116194,193657
116203,193581
116213,193575
116223,193614
116233,193637
116243,193658
116254,193737
116263,193699
116273,193726
116283,193749
116294,193854
116303,193824
116314,193920
116323,193852
116334,193949
116343,193898
116423,193473
116428,194047
116433,194044
116480,193982
116495,194040
116541,194099
116554,194037
116598,194056
116605,193978
116613,193886
116623,193885
116634,193903
116643,193814
116654,193807
116663,193715
116674,193756
116683,193644
116694,193692
116703,193662
116714,193691
116723,193648
116734,193665
116743,193650
116799,193656
116804,193734
116813,193676
116823,193694
116834,193705
116843,193675
116854,193688
116863,193654
116874,193691
116883,193689
116894,193686
116903,193684
116914,193694
116923,193663
116934,193671
116943,193657
116954,193664
116963,193676
116974,193663
116983,193663
116994,193665
117005,193654
117014,193665
117024,193660
117034,193679
117044,193669
117055,193651
117064,193673
117075,193663
117084,193676
117094,193699
117140,193720
117155,193715
117200,193742
117254,193699
117304,193771
117349,193802
117364,193812
117374,193801
117385,193768
117394,193756
117404,193748
117415,193716
117424,193704
117435,193721
117444,193694
117454,193682
117465,193679
117474,193675
117484,193667
117495,193649
117504,193657
117515,193645
117524,193641
117535,193682
117544,193688
117595,193737
117604,193772
117615,193774
117624,193773
117635,193775
117644,193783
117655,193791
117664,193773
117675,193762
117684,193769
117695,193768
117704,193785
117715,193755
117724,193744
117734,193732
117745,193717
117754,193697
117765,193693
117774,193666
117785,193627
117794,193613
117805,193591
117814,193567
117825,193564
117834,193532
117845,193506
117854,193456
117906,193745
117915,193342
117975,193290
118058,193285
118068,193258
118074,193278
118084,193249
118095,193271
118104,193288
118115,193252
118124,193244
118135,193206
118144,193209
118155,193202
118164,193183
118175,193178
118184,193147
118195,193155
118204,193128
118215,193132
118224,193111
118235,193131
118244,193131
118255,193100
118264,193099
118275,193103
118284,193121
118295,193102
118304,193099
118315,193106
118324,193090
118335,193074
118344,193059
118395,193061
118404,193077
118415,193078
118424,193062
118435,193090
118444,193088
118455,193103
118464,193068
118475,193096
118484,193085
118495,193089
118504,193047
118515,193078
118524,193070
118535,193107
118544,193069
118555,193114
118608,193018
118616,193091
118626,193043
118675,193153
118726,193256
118734,193285
118744,193270
118795,193431
118805,193362
118814,193401
118824,193388
118834,193386
118844,193433
118854,193415
118864,193381
118874,193397
118884,193418
118894,193410
118904,193397
118914,193393
118924,193404
118934,193378
118944,193345
118954,193364
118964,193367
118974,193388
118984,193351
118994,193385
119004,193378
119014,193390
119024,193364
119034,193404
119044,193399
119054,193393
119064,193377
119074,193442
119084,193438
119094,193478
119104,193460
119114,193520
119124,193547
119134,193557
119144,193543
119195,193641
119204,193651
119214,193632
119224,193635
119275,193712
119285,193719
119335,193746
119378,193655
119387,193598
119395,193578
119405,193613
119414,193558
119424,193543
119434,193574
119444,193570
119454,193604
119464,193592
119474,193584
119484,193590
119494,193589
119504,193594
119514,193583
119524,193595
119534,193593
119544,193622
119597,193712
119604,193564
119615,193617
119626,193565
119635,193573
119645,193579
119655,193535
119665,193540
119674,193496
119685,193514
119695,193492
119705,193485
119715,193463
119724,193415
119735,193462
119745,193435
119755,193485
119765,193474
119775,193475
119784,193441
119794,193450
119805,193449
119814,193457
119867,193516
119875,193504
119885,193464
119895,193430
119905,193391
119914,193318
119924,193243
119934,193235
119946,193196
119956,193211
119965,193289
119975,193395
119985,193462
119995,193465
120005,193447
120014,193446
120025,193415
120035,193462
120045,193511
120056,193572
120066,193619
120076,193658
120084,193696
120095,193701
120143,193712
120154,193733
120199,193740
120209,193720
120216,193740
120267,193689
120278,193646
120331,193483
120335,193376
120345,193509
120399,193445
120405,193460
120415,193422
120425,193417
120435,193379
120445,193378
120455,193369
120465,193354
120475,193340
120485,193361
120495,193374
120505,193373
120515,193408
120525,193425
120535,193426
120545,193409
120555,193399
120565,193387
120575,193403
120585,193396
120595,193398
120605,193435
120615,193440
120625,193444
120635,193442
120645,193432
120655,193468
120665,193450
120675,193465
120685,193436
120695,193461
120705,193476
120715,193478
120725,193470
120735,193469
120745,193465
120796,193537
120805,193512
120815,193536
120825,193547
120835,193578
120879,193540
120888,193616
120897,193627
120939,193666
120958,193684
121007,193670
121056,193732
121066,193734
121115,193704
121125,193726
121135,193734
121145,193707
121195,193619
121205,193598
121215,193582
121225,193577
121235,193572
121245,193551
121255,193509
121265,193488
121275,193498
121285,193478
121295,193463
121305,193479
121315,193494
121325,193462
121335,193452
121345,193457
121355,193484
121365,193477
121375,193495
121386,193552
121395,193533
121405,193493
121415,193492
121425,193496
121435,193514
121445,193505
121455,193494
121465,193500
121475,193525
121485,193476
121495,193503
121505,193494
121515,193539
121525,193505
121535,193529
121545,193526
121596,193537
121606,193564
121661,193541
121667,193480
121767,193523
121815,193505
121825,193496
121835,193529
121845,193532
121855,193530
121865,193522
121875,193543
121885,193509
121895,193482
121905,193443
121915,193473
121925,193419
121935,193422
121945,193412
121997,193495
122006,193421
122015,193389
122025,193332
122035,193375
122045,193338
122055,193341
122065,193334
122075,193370
122085,193360
122095,193366
122105,193348
122115,193408
122125,193385
122135,193383
122145,193403
122155,193433
122165,193401
122175,193415
122185,193401
122195,193405
122205,193415
122215,193411
122225,193417
122235,193441
122245,193438
122255,193450
122265,193415
122275,193429
122285,193431
122295,193438
122305,193382
122315,193394
122356,193393
122447,193447
122450,193366
122457,193452
122466,193427
122511,193349
122516,193421
122525,193433
122535,193405
122545,193449
122556,193426
122566,193431
122576,193412
122586,193410
122595,193391
122605,193363
122615,193354
122625,193338
122636,193345
122646,193320
122656,193322
122666,193306
122675,193310
122685,193308
122695,193293
122705,193349
122716,193423
122726,193478
122736,193556
122746,193632
122797,193731
122806,193729
122817,193705
122826,193736
122837,193712
122846,193730
122856,193720
122866,193700
122876,193674
122886,193678
122896,193675
122906,193646
122916,193674
122926,193660
122936,193632
122946,193641
122956,193622
122966,193626
122976,193621
122986,193612
122996,193596
123006,193579
123050,193568
123060,193546
123107,193544
123155,193524
123159,193496
123167,193542
123178,193547
123227,193559
123237,193524
123246,193550
123256,193544
123266,193550
123276,193554
123286,193541
123296,193565
123306,193571
123316,193555
123326,193560
123336,193556
123346,193567
123356,193567
123366,193547
123376,193536
123387,193514
123396,193511
123406,193507
123416,193508
123426,193496
123436,193472
123446,193446
123456,193431
123466,193419
123476,193377
123486,193372
123496,193372
123506,193363
123516,193332
123526,193310
123536,193349
123546,193331
123596,193416
123607,193346
123616,193371
123626,193381
123636,193383
123646,193395
123656,193346
123666,193382
123677,193374
123687,193356
123697,193365
123707,193383
123761,193336
123801,193438
123812,193367
123817,193406
123865,193361
123877,193381
123886,193434
123896,193407
123906,193414
123917,193443
123927,193436
123937,193442
123947,193460
123996,193469
124008,193412
124017,193461
124026,193441
124037,193454
124047,193459
124056,193453
124066,193425
124077,193456
124088,193429
124097,193433
124106,193408
124117,193416
124127,193356
124136,193372
124146,193359
124157,193360
124167,193351
124177,193312
124187,193245
124197,193270
124208,193234
124217,193218
124227,193168
124236,193229
124287,193227
124296,193145
124307,193192
124317,193195
124327,193201
124337,193194
124346,193198
124357,193217
124366,193204
124376,193218
124386,193202
124397,193255
124406,193213
124416,193223
124427,193275
124436,193229
124446,193220
124456,193226
124466,193273
124477,193271
124486,193207
124498,193267
124506,193209
124516,193207
124526,193210
124582,193222
124587,193243
124630,193123
124679,193198
124688,193173
124697,193244
124738,193251
124749,193265
124757,193226
124798,193337
124848,193231
124856,193229
124867,193271
124876,193236
124887,193297
124897,193283
124907,193309
124916,193259
124927,193292
124937,193300
124947,193294
124956,193225
124967,193240
124977,193214
124987,193194
124996,193129
125007,193155
125017,193183
125027,193160
125036,193109
125047,193147
125057,193131
125067,193140
125076,193108
125087,193106
125097,193128
125107,193123
125116,193106
125127,193123
125137,193135
125147,193150
125191,193279
125197,193202
125206,193194
125216,193215
125227,193212
125237,193205
125247,193205
125257,193201
125267,193176
125278,193186
125288,193173
125298,193189
125349,193203
125398,193136
125409,193157
125450,193095
125498,193171
125507,193145
125518,193154
125528,193150
125538,193148
125548,193156
125599,193157
125606,193136
125617,193143
125627,193141
125637,193140
125647,193129
125657,193130
125667,193139
125678,193127
125688,193137
125698,193139
125708,193137
125717,193110
125727,193096
125737,193091
125747,193079
125758,193061
125768,193055
125778,193018
125788,193015
125797,192988
125807,192980
125817,192957
125827,192965
125838,192935
125848,192930
125858,192928
125868,192940
125877,192920
125887,192943
125897,192926
125907,192922
125918,192903
125928,192906
125938,192877
125948,192931
125998,192945
126043,192988
126048,192970
126092,192929
126101,192838
126148,192835
126157,192923
126168,192937
126178,192945
126188,192947
126197,192957
126208,192941
126218,192929
126228,192935
126237,192955
126248,192947
126258,192947
126268,192953
126277,192997
126288,192956
126298,192991
126308,193000
126317,193039
126328,192982
126338,193003
126348,193015
126400,193011
126409,193025
126417,193054
126428,193035
126438,193028
126448,193020
126458,193028
126468,193024
126477,193014
126488,193018
126498,193018
126508,192978
126517,192989
126528,192946
126538,192946
126548,192938
126557,192937
126568,192900
126578,192901
126588,192908
126597,192899
126608,192890
126618,192868
126628,192877
126637,192872
126648,192884
126700,192854
126707,192888
126717,192891
126758,192938
126769,192887
126814,192910
126819,192947
126869,192931
126878,192970
126888,192983
126898,192979
126908,192995
126917,192965
126928,193005
126938,192989
126948,192983
126957,192988
126968,193011
126978,193027
126988,193026
126997,192996
127008,193052
127018,193045
127028,193045
127037,193006
127048,193048
127058,193062
127068,193053
127077,193043
127088,193079
127098,193086
127108,193089
127117,193052
127127,193056
127137,193050
127147,193046
127198,193114
127207,193010
127217,193066
127227,193041
127237,193046
127247,193048
127257,193038
127267,193031
127277,193020
127287,192997
127297,192986
127307,192950
127317,192942
127369,192932
127378,192870
127387,192892
127433,192864
127439,192930
127484,192976
127497,192918
127508,192998
127517,192932
127527,192908
127537,192934
127547,192955
127601,193020
127607,192972
127617,192985
127627,192987
127637,192985
127647,192947
127657,192963
127667,192970
127677,192997
127687,193017
127697,193024
127707,193027
127717,193041
127727,193016
127737,193039
127747,193062
127757,193067
127767,193070
127777,193062
127787,193080
127797,193090
127807,193058
127817,193067
127827,193086
127837,193105
127847,193088
127857,193087
127867,193094
127877,193088
127887,193104
127897,193114
127907,193116
127917,193115
127927,193112
127937,193119
127949,193116
128001,193101
128008,193047
128048,193104
128059,193063
128069,193077
128120,192973
128129,192978
128183,192944
128189,192933
128197,192905
128209,192930
128219,192943
128229,192932
128238,192944
128249,192950
128259,192967
128269,192975
128278,192960
128288,192957
128298,192972
128308,192989
128319,192976
128329,192983
128339,192991
128348,192990
128399,192997
128407,193003
128419,192995
128429,192994
128439,193002
128449,193005
128459,193007
128469,192991
128478,192999
128488,192994
128499,193000
128508,193010
128519,193013
128528,193004
128538,193004
128548,193019
128558,193046
128568,193026
128578,193028
128588,193023
128599,193017
128609,193060
128618,193055
128628,193038
128638,193067
128649,193042
128699,193052
128708,193052
128719,193041
128728,193054
128739,193035
128748,193035
128757,193051
128768,193042
128779,193046
128789,193058
128798,193027
128808,193026
128818,193010
128829,192991
128839,193006
128848,193009
128858,192968
128868,192978
128879,192907
128889,192902
128899,192890
128909,192899
128918,192891
128929,192865
128938,192856
128989,192868
129000,192912
129010,192889
129059,192904
129070,193004
129120,192952
129129,192830
129172,192937
129219,192942
129232,192965
129320,192999
129330,192998
129338,193027
129348,193021
129358,193028
129368,193032
129378,193041
129388,193030
129398,193058
129408,193049
129418,193041
129428,193053
129438,193048
129448,193052
129458,193031
129468,193033
129478,193057
129488,193058
129499,193038
129508,193022
129518,193041
129529,193053
129538,193041
129549,193040
129600,192925
129609,192892
129618,192934
129629,192924
129639,192887
129648,192869
129659,192878
129668,192825
129678,192845
129689,192852
129698,192840
129709,192828
129718,192823
129729,192840
129738,192828
129749,192863
129758,192847
129769,192897
129778,192863
129789,192901
129798,192868
129809,192915
129818,192882
129867,192920
129871,193041
129880,192961
129891,192970
129940,192900
130031,192922
130074,192891
130084,192954
130088,192899
130099,192980
130108,192883
130118,192936
130129,192990
130138,192941
130149,193003
130158,192951
130169,193011
130178,192941
130189,192994
130198,192906
130208,192923
130219,192962
130228,192902
130238,192921
130249,192988
130258,192907
130269,192960
130278,192863
130289,192928
130298,192888
130309,192908
130318,192856
130329,192892
130338,192837
130349,192858
130401,192886
130409,192710
130418,192673
130429,192710
130438,192647
130449,192699
130458,192636
130469,192698
130478,192653
130489,192707
130498,192654
130509,192692
130518,192658
130528,192672
130578,192709
130629,192738
130638,192747
130682,192809
130689,192784
130698,192787
130709,192769
130719,192782
130728,192762
130739,192800
130749,192810
130800,192648
130810,192822
130819,192832
130829,192823
130839,192833
130850,192829
130859,192827
130869,192820
130879,192829
130890,192835
130899,192826
130909,192846
130919,192867
130930,192878
130939,192876
130949,192871
130959,192875
130970,192880
130979,192889
130989,192892
130999,192897
131010,192899
131019,192905
131029,192867
131039,192872
131050,192841
131059,192787
131069,192791
131079,192772
131090,192752
131099,192719
131109,192692
131119,192706
131130,192763
131139,192830
131150,192984
131201,193764
131249,194532
131300,194770
131310,194817
131360,194693
131370,194548
131379,194494
131389,194402
131399,194333
131410,194240
131419,194164
131429,194089
131439,194167
131450,194278
131459,194391
131469,194538
131479,194692
131490,194833
131499,194939
131509,194927
131519,194873
131530,194912
131539,195050
131549,195420
131602,198299
131611,198478
131619,198524
131629,198693
131640,198911
131649,199097
131660,199319
131669,199322
131679,199336
131690,199351
131699,198985
131709,198600
131719,198456
131730,198607
131739,199008
131749,199483
131759,200052
131770,200561
131779,201114
131789,201453
131799,201506
131810,201374
131819,201196
131829,201018
131839,200843
131850,200792
131859,200816
131869,200915
131913,199564
131919,198726
131971,196172
131981,195956
131989,195724
132040,195242
132086,195460
132100,199419
132110,199375
132119,199293
132130,199531
132139,200161
132150,200839
132159,201448
132170,201857
132179,202348
132190,202951
132199,203327
132210,203616
132219,203659
132230,203334
132239,202552
132250,201699
132259,200688
132270,199761
132279,199036
132290,198514
132299,197804
132310,196675
132319,196327
132330,196059
132339,195781
132350,195272
132401,202948
132410,202415
132419,201971
132429,202013
132439,202071
132449,202236
132460,203137
132469,203781
132479,200388
132489,196394
132500,194824
132509,193702
132519,193436
132529,193411
132540,193533
132549,193652
132559,193804
132569,193967
132580,194108
132589,194139
132599,194268
132609,194419
132653,195226
132659,195169
132705,194244
132710,194029
132720,193966
132770,193522
132780,193353
132871,193396
132880,193395
132889,193392
132901,193493
132910,193528
132920,193716
132930,193919
132939,194040
132949,194205
132960,194430
132970,194564
132979,194741
132989,194939
133000,195239
133010,195369
133020,195503
133030,195563
133040,195686
133049,195577
133059,195531
133070,195445
133079,195255
133091,195134
133100,194892
133145,194612
133148,193285
133150,194149
133160,194212
133169,194389
133179,194592
133189,194897
133199,195198
133209,195546
133220,195764
133229,195966
133239,196159
133249,196360
133259,196630
133271,196952
133280,197263
133291,197596
133299,197815
133309,198132
133320,198399
133329,198187
133339,197908
133350,197618
133360,197274
133370,196844
133379,196401
133435,195240
133440,195284
133492,195773
133540,196810
133552,197093
133601,198302
133650,197666
133701,195617
133711,195197
133720,194905
133730,194693
133740,194782
133750,195008
133760,195390
133770,195815
133781,196288
133790,196780
133801,197282
133810,197783
133820,198372
133831,198936
133840,199544
133851,200345
133860,201476
133870,202210
133880,202973
133890,203646
133901,204203
133910,204251
133921,204186
133930,203861
133940,203168
133951,201808
134001,196630
134010,196249
134020,195980
134030,195823
134040,195777
134051,195790
134060,195884
134070,196008
134080,196112
134090,196224
134101,196368
134110,196587
134121,196864
134130,197115
134140,197323
134191,197546
134201,197500
134251,197230
134296,195652
134300,195264
134310,194920
134321,194601
134330,194536
134340,194585
134351,194883
134401,197105
134412,197438
134421,197692
134430,197957
134440,198099
134450,198246
134461,198301
134470,198396
134480,198528
134491,198693
134500,198932
134510,199099
134520,199316
134530,199306
134540,199155
134551,198834
134560,198514
134570,198212
134581,198014
134590,197832
134600,197730
134611,197745
134620,197812
134630,197941
134640,198085
134650,198182
134660,198283
134671,198379
134680,198412
134690,198470
134701,198556
134710,198617
134720,198675
134731,198821
134740,198935
134750,198983
134801,198579
134810,198416
134862,198465
134871,198584
134922,199391
134971,199916
134980,200035
134990,200231
135000,200394
135011,200829
135020,201275
135030,201934
135040,203059
135050,204619
135060,205424
135071,205673
135080,205331
135090,204720
135101,204015
135110,203625
135120,203518
135130,203666
135141,204124
135194,204430
135200,204233
135211,204337
135220,204304
135231,204303
135240,203974
135250,203509
135261,203243
135270,202868
135280,202480
135291,202236
135300,202071
135310,202081
135320,202153
135330,202200
135340,202110
135351,202001
135360,201805
135370,201549
135381,201336
135390,201032
135400,200714
135411,200458
135420,200149
135430,199993
135440,199767
135450,199581
135460,199344
135471,199268
135522,199223
135530,199337
135583,200062
135591,200314
135646,201269
135650,201434
135703,202871
135711,203031
135721,203047
135731,202909
135740,202722
135750,202584
135760,202406
135770,202305
135781,202124
135791,201742
135800,201398
135811,201100
135821,200845
135831,200675
135840,200623
135851,200618
135862,200690
135871,200711
135881,200703
135891,200627
135901,200423
135911,200186
135921,199968
135931,199843
135942,199839
135991,199730
136001,199612
136011,199448
136021,199339
136031,199256
136041,199282
136052,199301
136061,199295
136071,199276
136081,199201
136091,199107
136102,199077
136111,199108
136121,199217
136132,199364
136141,199505
136151,199572
136161,199611
136171,199600
136182,199564
136191,199594
136201,199680
136212,199777
136266,199692
136270,199641
136283,199635
136329,199654
136341,199353
136352,199265
136402,199049
136463,198432
136472,198243
136481,197852
136491,197449
136502,197126
136511,196911
136521,196870
136531,196957
136542,197144
136551,197350
136561,197603
136572,197765
136581,197825
136591,197878
136601,197935
136611,197945
136622,197964
136631,197959
136641,198014
136652,198073
136661,198109
136671,198201
136681,198290
136691,198373
136702,198398
136711,198415
136721,198534
136732,198648
136741,198854
136793,198243
136804,199091
136812,199021
136821,198887
136831,198759
136841,198765
136851,198833
136862,198854
136871,198882
136881,198921
136892,198935
136901,198991
136912,198990
136921,199001
136931,198983
136942,199050
136951,199210
136961,199423
136972,199739
137023,201436
137072,201980
137116,201330
137122,201342
137207,201699
137217,201783
137222,201849
137232,201859
137321,201842
137333,201873
137342,201713
137352,201592
137362,201430
137371,201269
137382,201163
137391,201139
137402,201063
137412,201047
137422,200971
137432,200903
137442,200873
137451,200856
137462,200825
137471,200842
137481,200941
137492,201064
137502,201255
137511,201339
137521,201477
137531,201544
137542,201755
137552,201854
137561,202150
137612,202945
137621,202610
137632,202361
137641,202145
137652,202116
137662,202173
137672,202213
137681,202134
137692,201958
137701,201643
137712,201445
137722,201214
137732,201032
137742,200935
137752,200916
137762,200755
137772,200445
137783,200119
137791,199793
137802,199691
137812,199572
137821,199283
137831,198905
137841,198428
137932,197086
137936,203019
137944,197595
137953,197758
138005,198047
138053,198839
138106,199381
138112,199487
138121,199530
138132,199567
138141,199504
138152,199574
138161,199559
138172,199616
138181,199579
138192,199634
138201,199583
138212,199628
138221,199557
138232,199573
138241,199479
138252,199413
138261,199190
138272,198972
138281,198688
138292,198463
138301,198171
138312,197962
138321,197783
138332,197694
138341,197606
138392,197372
138404,197269
138411,197195
138422,197212
138432,197255
138441,197373
138452,197534
138461,197743
138472,197941
138481,198028
138492,198158
138501,198267
138512,198194
138521,198011
138532,197897
138543,197963
138551,198068
138562,197896
138573,197616
138582,197440
138593,197468
138602,197640
138612,197837
138655,198346
138662,198522
138708,199562
138749,199819
138763,199757
138812,198839
138824,198765
138831,198615
138842,198646
138852,198620
138863,198521
138872,198492
138883,198465
138892,198648
138902,198892
138912,199254
138922,199533
138933,199665
138942,199711
138953,199726
138962,199793
138972,199800
138983,199684
138992,199413
139002,199099
139012,198874
139023,198796
139032,198837
139042,198904
139053,198946
139062,198864
139073,198700
139082,198415
139092,198131
139103,197861
139112,197743
139122,197718
139133,197738
139142,197707
139193,196540
139204,196283
139212,196081
139223,195906
139232,195726
139243,195504
139252,195334
139262,195198
139272,195044
139283,194815
139292,194647
139303,194480
139312,194373
139323,194373
139373,195006
139423,196420
139432,196547
139483,197059
139493,197013
139503,196957
139512,196905
139523,196857
139532,196845
139543,196836
139604,196787
139614,196732
139622,196765
139632,196655
139643,196615
139652,196592
139663,196573
139672,196619
139683,196531
139692,196486
139703,196354
139712,196257
139723,196199
139732,196245
139743,196381
139752,196711
139763,197070
139772,197429
139783,197744
139792,198097
139802,198349
139813,198594
139822,198888
139833,199132
139842,199502
139853,199679
139862,199805
139873,199924
139882,199826
139893,199629
139902,199496
139913,199553
139922,199731
139933,200127
139942,200571
139992,201404
140002,201169
140054,201111
140063,201087
140113,201492
140123,201757
140173,202388
140184,202243
140192,202144
140203,202052
140212,202002
140223,201996
140232,202026
140243,202133
140252,202250
140263,202431
140272,202582
140283,202845
140292,203133
140303,203496
140312,203851
140323,204451
140332,205450
140343,206681
140394,210847
140404,211719
140412,212112
140423,212358
140432,212125
140443,211667
140452,211081
140463,210509
140472,210209
140483,210229
140492,210536
140502,211241
140512,211957
140522,212507
140532,212577
140542,212448
140552,212036
140562,210931
140572,209721
140582,207730
140592,206808
140602,206020
140612,205527
140622,205023
140632,204450
140642,204098
140652,203898
140662,203909
140672,204040
140682,204263
140738,212112
140743,204940
140796,204467
140845,212507
140854,203992
140863,203959
140873,204003
140917,204436
140923,204618
140934,204794
140982,204967
140992,204922
141002,204866
141012,204794
141022,204754
141032,204593
141042,204502
141052,204383
141062,204253
141072,204103
141082,203999
141092,203849
141102,203780
141112,203698
141122,203662
141132,203650
141142,203628
141193,203082
141203,202940
141213,202809
141222,202637
141232,202518
141242,202443
141252,202345
141262,202261
141272,202149
141282,202024
141292,201921
141302,201794
141312,201660
141322,201511
141332,201361
141342,201225
141352,201120
141362,201060
141372,200980
141382,200933
141392,200852
141404,200757
141413,200644
141423,200502
141434,200362
141443,200247
141454,200170
141463,200107
141474,200042
141526,200030
141533,200107
141584,200840
141594,200891
141686,202121
141692,202302
141705,202421
141753,202601
141764,202676
141773,202683
141784,202618
141794,202531
141803,202413
141813,202299
141823,202262
141832,202301
141843,202287
141854,202398
141864,202486
141873,202512
141883,202576
141894,202581
141904,202444
141912,202313
141923,202184
141933,202298
141943,202399
141955,202271
141963,202155
141973,202079
141984,201997
141994,201870
142004,201842
142053,201893
142064,202044
142073,202152
142084,202282
142093,202365
142103,202550
142114,202699
142123,202899
142134,202945
142144,202977
142153,202935
142163,202856
142173,202677
142183,202580
142194,202599
142203,202694
142214,202753
142223,202679
142232,202505
142243,202297
142254,202175
142264,202021
142273,201851
142284,201685
142324,200578
142333,200510
142345,200440
142396,202152
142404,200197
142414,200182
142423,200207
142433,200363
142443,200488
142453,200454
142463,200281
142473,200082
142483,199942
142493,199859
142503,199800
142513,199809
142523,199855
142533,199859
142543,199863
142553,199873
142563,199896
142573,199903
142583,199992
142593,200047
142603,200152
142613,200207
142623,200290
142633,200232
142643,200220
142653,200199
142663,200211
142673,200241
142683,200292
142693,200342
142703,200402
142713,200483
142723,200557
142733,200660
142743,200795
142795,201522
142806,201765
142855,203335
142866,203721
142874,204110
142924,204953
142976,205484
142983,205498
142993,205432
143003,205405
143013,205446
143023,205502
143033,205613
143043,205734
143053,205944
143063,206107
143073,206225
143083,206239
143093,206306
143103,206387
143113,206508
143123,206601
143133,206819
143144,207125
143195,210122
143206,210862
143214,211669
143224,212228
143234,212426
143243,212247
143253,211985
143263,211601
143273,211009
143283,210417
143293,209934
143303,209373
143313,208829
143323,208353
143333,208000
143343,207761
143353,207541
143363,207365
143373,207255
143383,207233
143393,207314
143403,207446
143413,207687
143423,208264
143433,208761
143443,208818
143453,209017
143463,209168
143473,209262
143525,209745
143536,209957
143585,206507
143594,206503
143645,206798
143695,205883
143705,205574
143714,205211
143723,204967
143733,204787
143743,204622
143753,204466
143763,204252
143773,204069
143783,203918
143793,204014
143803,204259
143813,204532
143823,204736
143833,204860
143843,204963
143853,205018
143863,205034
143873,204997
143883,204957
143893,204941
143903,204973
143913,205031
143923,205185
143933,205375
143943,205571
143995,206581
144003,206554
144014,206393
144024,206385
144033,206256
144043,206131
144053,206001
144063,205871
144074,205729
144084,205568
144094,205408
144104,205147
144113,205004
144123,204905
144134,205589
144144,206393
144153,206711
144163,206966
144174,207135
144184,207169
144194,206927
144241,206484
144255,206136
144304,206118
144354,204966
144366,205012
144414,204893
144425,203646
144469,203659
144474,203414
144477,203369
144486,203570
144494,203797
144504,203778
144514,203495
144524,203415
144534,203423
144544,203509
144554,203624
144564,203701
144574,203818
144584,203958
144594,203993
144604,203959
144614,203838
144624,203758
144634,203790
144644,203901
144654,204030
144664,204130
144674,204294
144684,204428
144694,204532
144704,204635
144714,204718
144724,204862
144734,205067
144744,205193
144799,205274
144805,205226
144816,205158
144824,205081
144834,205031
144844,204957
144854,204869
144864,204790
144874,204711
144884,204705
144894,204692
144904,204694
144914,204647
144924,204553
144934,204439
144944,204231
144954,203984
144964,203737
144974,203422
144984,203183
145039,202586
145086,201789
145096,201815
145186,201844
145196,201784
145296,202505
145306,202555
145314,202590
145324,202564
145334,202519
145344,202532
145354,202541
145364,202632
145374,202730
145384,202801
145394,202877
145404,202941
145414,203060
145424,203247
145435,203441
145445,203623
145455,203842
145465,204049
145474,204148
145484,204141
145494,204082
145504,204068
145515,204088
145525,204101
145535,204076
145545,203965
145597,202940
145606,202743
145616,202528
145624,202344
145634,202083
145645,201905
145655,201669
145665,201475
145674,201257
145684,201131
145694,201077
145704,201103
145715,201124
145725,201105
145735,201114
145783,201109
145788,203441
145835,201605
145884,202028
145895,202339
145905,202756
145914,203113
145924,203397
145934,203648
145944,203829
145996,203770
146005,203873
146015,204053
146025,204256
146035,204532
146045,204654
146055,204707
146065,204745
146074,204716
146084,204747
146094,204818
146104,204930
146115,204999
146125,204995
146135,204865
146145,204733
146154,204545
146164,204487
146174,204463
146184,204451
146195,204410
146205,204341
146215,204229
146225,204047
146234,203743
146244,203533
146254,203301
146264,203142
146275,203062
146285,202987
146295,202848
146305,202686
146314,202489
146324,202395
146334,202339
146344,202308
146396,201722
146405,201627
146486,204865
146495,201542
146546,202173
146554,202466
146564,202784
146574,202849
146585,202965
146595,202991
146605,202896
146615,202808
146624,202689
146635,202678
146644,202535
146655,202602
146664,202605
146674,202658
146684,202771
146695,202946
146705,203049
146715,203113
146725,203151
146734,203208
146746,203425
146754,203592
146764,203789
146775,203956
146784,204040
146794,204029
146844,203568
146854,203422
146865,203267
146875,203085
146884,202833
146895,202668
146904,202430
146914,202239
146925,202025
146935,201884
146945,201765
146955,201618
146965,201574
146974,201517
146986,201502
146995,201452
147005,201428
147015,201444
147026,201449
147034,201488
147046,201483
147055,201561
147066,201740
147074,202006
147086,202366
147135,202468
147180,202355
147186,202253
147236,202645
147245,202762
147255,202954
147265,203294
147275,203987
147285,205075
147295,206193
147305,207243
147316,208348
147326,209399
147336,210190
147346,210670
147355,210671
147365,210397
147375,209912
147385,209621
147396,209601
147406,209794
147416,210123
147426,210450
147435,210545
147445,210343
147455,209816
147465,209210
147476,208571
147486,207971
147496,207372
147506,207022
147515,206910
147525,207082
147535,207448
147545,207907
147595,209888
147606,210100
147616,210367
147626,210545
147635,210697
147646,210778
147656,210863
147666,210894
147675,210779
147685,210553
147739,210123
147746,208814
147800,207605
147805,207296
147849,206128
147856,205543
147866,204966
147876,204355
147886,203750
147896,203126
147906,202572
147915,202146
147926,201859
147936,201696
147946,201610
147995,201446
148005,201461
148015,201450
148026,201434
148035,201473
148046,201481
148056,201521
148066,201529
148075,201478
148086,201424
148096,201366
148106,201316
148115,201239
148126,201196
148136,201082
148146,200972
148155,200774
148166,200582
148176,200392
148186,200188
148195,199964
148206,199737
148216,199543
148226,199368
148235,199235
148246,199138
148256,199021
148266,198968
148275,198889
148286,198826
148296,198772
148306,198700
148315,198558
148326,198433
148336,198286
148345,198133
148427,201478
148437,197299
148447,197213
148500,200972
148505,197062
148552,197087
148560,197270
148567,197306
148576,197354
148585,197457
148595,197494
148606,197602
148616,197654
148626,197688
148635,197695
148646,197754
148656,197763
148665,197732
148676,197800
148686,197817
148696,197850
148706,197886
148715,197854
148726,197948
148736,197953
148746,197978
148798,197830
148805,197834
148816,197886
148826,197924
148835,197880
148846,197993
148856,198029
148866,198034
148875,197961
148886,198017
148896,198047
148906,198052
148915,197929
148926,197926
148936,197845
148946,197809
148955,197742
148966,197792
148976,197796
148986,197816
148995,197735
149005,197750
149015,197786
149025,197827
149036,197937
149045,197948
149055,198001
149065,198039
149076,198116
149127,198016
149135,198011
149178,198139
149187,198083
149232,198160
149271,198017
149279,198357
149327,198802
149338,198838
149386,199561
149396,199686
149407,199772
149417,199809
149427,199863
149436,199900
149447,199933
149457,199991
149467,200057
149476,200099
149487,200181
149497,200178
149507,200209
149517,200225
149527,200182
149537,200144
149547,200114
149596,200170
149606,200131
149617,200127
149627,200090
149637,200011
149647,199972
149657,199962
149667,199916
149676,199883
149687,199922
149697,199877
149707,199838
149716,199781
149727,199613
149737,199368
149747,199139
149756,198975
149767,198914
149777,198878
149787,198859
149796,198855
149807,198847
149817,198819
149827,198809
149836,198781
149847,198738
149857,198732
149867,198692
149876,198672
149928,198669
149937,198792
149947,198768
150036,198544
150041,199922
150047,198667
150096,198843
150106,198917
150117,198971
150127,199019
150137,199039
150147,199045
150156,199048
150167,199027
150177,198991
150187,198973
150196,198868
150207,198794
150217,198718
150227,198642
150236,198554
150247,198555
150257,198503
150267,198488
150276,198459
150286,198447
150296,198482
150306,198500
150317,198581
150327,198615
150337,198617
150347,198621
150397,198666
150406,198639
150416,198589
150426,198556
150436,198515
150446,198480
150456,198422
150466,198370
150476,198326
150486,198259
150496,198208
150506,198158
150516,198096
150526,198077
150536,198045
150546,198032
150556,197986
150566,197991
150576,197968
150586,197913
150596,197862
150648,197657
150657,197620
150702,197544
150710,197277
150754,197308
150767,197153
150818,197225
150826,197222
150836,197239
150846,197255
150856,197267
150866,197278
150876,197270
150886,197211
150896,197185
150906,197180
150916,197166
150926,197141
150936,197114
150946,197105
150956,197118
150966,197142
150976,197165
150986,197179
150996,197208
151006,197247
151016,197291
151026,197305
151036,197333
151046,197304
151056,197303
151066,197283
151076,197272
151086,197297
151096,197305
151106,197346
151116,197367
151126,197361
151136,197382
151146,197395
151189,197299
151196,197268
151206,197291
151216,197287
151226,197290
151236,197277
151246,197269
151256,197239
151266,197215
151276,197180
151286,197151
151296,197114
151306,197097
151316,197090
151358,197020
151368,197021
151379,197037
151387,196770
151396,196703
151408,196604
151416,196589
151427,196681
151436,196666
151446,196679
151457,196685
151466,196679
151476,196750
151486,196827
151496,196902
151506,196946
151516,196929
151526,196939
151537,196869
151547,196911
151558,196882
151567,196780
151576,196680
151587,196667
151596,196560
151606,196553
151655,196522
151666,196596
151676,196606
151686,196633
151696,196595
151706,196638
151716,196664
151726,196675
151736,196676
151747,196709
151757,196718
151766,196679
151776,196663
151787,196716
151797,196749
151807,196768
151817,196771
151827,196759
151838,196786
151846,196773
151856,196811
151866,196813
151878,196870
151886,196920
151896,196950
151907,197004
151917,196938
151961,196500
152008,196504
152053,196565
152067,196687
152118,196557
152128,196519
152137,196475
152147,196509
152157,196536
152167,196544
152177,196569
152187,196573
152197,196615
152207,196669
152217,196738
152227,196786
152237,196796
152247,196811
152257,196819
152267,196759
152277,196720
152287,196650
152297,196602
152307,196577
152317,196568
152327,196579
152337,196589
152347,196581
152397,196571
152407,196524
152417,196504
152427,196484
152437,196481
152447,196451
152457,196433
152467,196404
152477,196365
152487,196327
152497,196281
152507,196214
152517,196155
152527,196141
152537,196082
152547,196031
152557,195959
152567,195864
152577,195767
152587,195631
152597,195521
152607,195424
152617,195314
152627,195213
152680,194923
152722,194870
152730,194744
152778,194542
152788,194510
152838,194349
152886,194287
152889,196082
152898,194208
152907,194239
152950,193917
152957,193900
152968,193791
152977,193725
152987,193618
152997,193502
153008,193353
153017,193272
153027,193146
153037,193044
153048,192984
153057,192911
153067,192820
153077,192765
153088,192684
153097,192602
153107,192539
153117,192523
153128,192571
153137,192676
153147,192777
153200,194287
153207,192361
153218,192274
153227,192151
153237,192217
153248,192399
153257,192523
153267,193181
153277,193930
153288,194434
153297,194594
153307,194569
153317,194410
153328,194281
153337,194135
153347,193944
153357,193733
153368,193637
153377,193540
153387,193520
153397,193497
153408,193420
153417,193274
153427,193095
153437,192981
153448,192982
153498,193131
153549,193473
153600,193690
153692,194216
153696,194135
153700,193944
153707,193966
153717,193909
153728,193922
153737,193942
153747,193979
153757,194038
153768,194143
153777,194142
153787,194218
153797,194276
153808,194358
153817,194337
153827,194321
153837,194293
153848,194325
153857,194243
153867,194215
153877,194150
153888,194146
153897,194060
153907,194109
153917,194154
153928,194225
153937,194190
153947,194185
153997,194057
154008,194135
154017,194061
154027,194048
154037,193989
154048,194022
154057,193947
154068,193956
154077,193926
154088,193922
154097,193858
154108,193933
154117,193884
154128,193928
154137,193865
154148,193911
154157,193884
154168,193935
154177,193871
154188,193934
154197,193902
154249,194028
154303,194063
154359,194532
154367,194721
154419,195135
154427,195187
154438,195483
154447,195924
154458,196309
154467,196463
154477,196450
154488,196383
154498,196307
154507,196216
154517,196162
154528,196189
154537,196217
154548,196204
154558,196210
154569,196141
154578,196101
154589,196074
154598,196051
154609,196048
154618,196001
154629,195906
154638,195757
154649,195652
154658,195581
154669,195539
154678,195504
154689,195519
154698,195403
154709,195206
154718,194960
154729,194669
154738,194354
154749,194101
154799,193848
154807,193943
154818,194093
154829,194239
154838,194355
154849,194420
154858,194501
154901,195003
154909,195214
154959,196190
155008,196468
155019,196497
155028,196495
155038,196522
155049,196582
155058,196598
155069,196543
155078,196460
155089,196544
155098,196559
155109,196638
155118,196516
155129,196320
155138,196097
155149,196031
155203,195945
155209,195959
155218,195925
155229,195836
155238,195789
155249,195673
155258,195620
155268,195513
155278,195416
155289,195339
155298,195247
155309,195188
155318,195094
155329,195024
155338,194948
155349,194913
155358,194812
155369,194786
155378,194733
155388,194698
155398,194700
155408,194741
155419,194779
155428,194833
155438,194842
155448,194875
155459,194894
155468,194857
155478,194778
155488,194718
155499,194686
155508,194711
155562,194860
155568,194931
155665,195227
155679,195661
155723,195641
155727,194733
155731,195855
155738,195878
155749,196012
155758,196119
155769,196249
155778,196314
155788,196327
155798,196353
155808,196339
155819,196378
155828,196395
155838,196439
155848,196446
155858,196439
155868,196392
155878,196380
155888,196329
155899,196349
155908,196410
155918,196514
155928,196610
155939,196703
155948,196707
155998,196676
156010,196679
156019,196622
156029,196613
156038,196596
156048,196553
156058,196519
156068,196571
156079,196623
156089,196613
156098,196600
156109,196505
156118,196357
156129,196310
156139,196231
156149,196195
156158,196136
156169,196181
156179,196201
156188,196217
156199,196278
156209,196271
156219,196225
156269,196345
156279,196270
156288,196193
156298,196187
156308,196126
156319,196039
156329,195934
156339,195868
156348,195672
156358,195614
156368,195530
156379,195490
156388,195379
156399,195372
156409,195460
156419,195472
156428,195566
156438,195531
156448,195497
156458,195587
156468,195761
156479,196303
156489,196419
156498,196468
156508,196509
156519,196637
156564,196376
156569,196350
156619,196331
156671,196636
156682,196928
156724,197193
156733,197485
156738,197238
156788,196720
156841,197001
156849,196966
156859,196956
156868,196930
156878,196883
156888,196844
156898,196743
156909,196619
156918,196412
156928,196270
156939,196130
156948,195993
156958,195835
156968,195717
156978,195551
156989,195470
156999,195399
157008,195376
157019,195389
157028,195468
157038,195526
157049,195579
157058,195653
157069,195739
157079,195844
157088,195949
157099,196061
157108,196194
157120,196303
157129,196453
157138,196609
157149,196718
157210,198375
157219,199247
157230,199905
157239,200538
157250,201171
157259,201813
157270,202473
157279,203025
157329,203558
157339,203528
157390,204023
157401,204170
157441,204251
157489,204587
157499,204474
157509,204435
157519,204504
157529,204668
157540,204906
157549,205006
157601,202860
157610,202079
157619,201315
157630,200626
157640,200266
157649,199902
157659,199513
157669,199172
157679,198846
157689,198637
157699,198386
157709,198191
157719,198047
157729,197926
157739,197837
157749,197698
157759,197622
157769,197505
157779,197356
157789,197183
157799,197000
157809,196788
157819,196636
157829,196442
157839,196279
157849,196157
157859,196092
157869,196034
157879,196010
157889,196012
157899,196052
157909,196087
157919,196165
157929,196269
157939,196390
157949,196475
158041,196877
158045,198637
158049,197189
158060,197220
158070,197214
158121,196943
158170,196599
158179,196563
158189,196524
158199,196517
158209,196429
158219,196310
158230,196093
158239,195831
158249,195520
158260,195191
158269,194852
158279,194526
158289,194212
158299,193937
158309,193674
158319,193457
158329,193154
158339,192802
158349,192530
158400,191792
158410,191728
158419,191764
158429,191710
158439,191679
158449,191605
158460,191589
158469,191556
158479,191553
158489,191563
158499,191556
158509,191614
158519,191653
158529,191702
158539,191705
158550,191780
158559,191772
158569,191796
158580,191870
158589,191916
158599,191974
158609,191985
158619,192003
158629,192016
158639,192078
158649,192060
158659,192028
158669,192012
158721,191856
158731,191845
158777,191748
158791,191594
158840,191439
158891,191579
158899,191590
158909,191642
158919,191713
158929,191673
158940,191743
158949,191643
158959,191558
158969,191525
158979,191486
158990,191547
158999,191535
159009,191504
159020,191604
159029,191570
159039,191575
159049,191584
159060,191682
159069,191669
159079,191728
159089,191764
159100,191892
159109,191904
159119,191925
159129,191922
159140,191967
159149,191952
159202,192550
159210,192493
159219,192633
159230,192733
159239,192698
159250,192711
159259,192630
159269,192603
159280,192610
159289,192565
159299,192608
159310,192683
159319,192672
159329,192666
159340,192733
159349,192679
159359,192705
159369,192729
159380,192777
159389,192825
159440,193148
159453,193149
159542,192986
159549,192766
159601,192500
159612,192427
159656,192324
159672,192227
159680,192245
159690,192317
159700,192385
159711,192446
159720,192501
159730,192533
159741,192542
159750,192555
159760,192538
159771,192506
159780,192428
159790,192389
159800,192310
159810,192268
159820,192220
159831,192175
159840,192167
159850,192141
159860,192097
159871,192099
159880,192125
159890,192174
159901,192182
159910,192232
159920,192234
159931,192218
159940,192216
159950,192171
160002,192398
160010,192475
160020,192558
160031,192666
160040,192781
160050,192920
160060,193049
160071,193188
160080,193295
160090,193399
160101,193448
160110,193490
160160,193354
160212,193077
160221,193056
160271,193161
160281,193080
160290,193214
160300,193255
160311,193252
160321,193240
160330,193218
160341,193092
160391,192685
160401,192688
160411,192683
160420,192671
160430,192568
160440,192460
160450,192367
160460,192295
160470,192166
160480,192087
160490,192014
160500,191929
160510,191866
160520,191774
160530,191704
160540,191589
160551,191540
160561,191477
160570,191459
160580,191387
160591,191344
160641,191107
160650,190974
160660,190859
160671,190737
160682,190622
160691,190593
160701,190512
160710,190469
160720,190464
160731,190460
160740,190467
160751,190431
160761,190416
160770,190403
160782,190399
160791,190413
160801,190441
160810,190513
160820,190543
160831,190610
160841,190710
160850,190776
160861,190818
160871,190906
160881,190974
160891,191040
160975,191143
160979,191155
160985,191253
161031,191347
161042,191367
161051,191349
161101,191396
161113,191434
161160,191352
161211,191528
161222,191561
161230,191539
161240,191521
161251,191599
161260,191585
161270,191535
161281,191630
161290,191567
161301,191601
161310,191602
161320,191600
161331,191701
161340,191699
161350,191688
161361,191767
161370,191679
161381,191721
161390,191688
161401,191738
161410,191707
161421,191778
161430,191747
161441,191796
161450,191776
161461,191841
161470,191889
161481,192036
161490,192132
161501,192305
161510,192437
161521,192655
161530,192756
161541,192970
161592,194098
161601,194299
161611,194468
161620,194326
161631,194208
161640,194098
161651,194025
161703,193803
161712,193832
161761,193714
161847,193617
161861,193527
161870,193501
161881,193496
161890,193483
161900,193457
161911,193402
161922,193348
161931,193271
161941,193150
162002,192771
162012,192733
162022,192642
162031,192587
162041,192594
162052,192593
162061,192641
162071,192652
162082,192660
162091,192703
162101,192787
162112,192851
162121,192932
162131,193029
162142,193105
162151,193193
162161,193279
162172,193351
162181,193414
162191,193472
162202,193513
162211,193508
162221,193542
162231,193554
162242,193526
162251,193491
162261,193488
162272,193462
162281,193480
162291,193485
162302,193498
162311,193516
162321,193489
162332,193389
162341,193364
162395,193205
162402,193166
162453,193213
162497,193249
162501,193193
162506,193498
162546,193554
162550,193414
162554,193540
162561,193556
162571,193519
162582,193469
162591,193482
162601,193492
162612,193498
162621,193522
162631,193477
162642,193423
162651,193383
162662,193310
162671,193256
162682,193197
162691,193124
162702,193094
162711,193036
162722,193008
162731,192959
162742,192961
162793,193104
162802,193135
162811,193147
162821,193128
162832,193117
162841,193158
162852,193147
162861,193198
162872,193245
162881,193247
162892,193242
162901,193226
162912,193219
162921,193250
162932,193223
162941,193305
162952,193365
162961,193468
162972,193506
162981,193558
162992,193504
163001,193464
163012,193344
163021,193274
163032,193132
163041,193068
163052,192952
163114,192871
163119,192987
163122,192989
163177,192968
163183,193167
163231,194030
163284,194575
163291,194712
163301,194766
163311,194854
163322,194864
163331,194874
163342,194890
163351,194903
163362,194898
163371,194865
163382,194826
163391,194792
163402,194778
163411,194753
163422,194652
163431,194579
163441,194518
163452,194463
163461,194404
163472,194354
163481,194285
163492,194250
163501,194245
163512,194196
163521,194213
163532,194257
163541,194243
163592,194267
163601,194210
163611,194199
163622,194210
163632,194200
163641,194175
163652,194169
163661,194151
163672,194212
163681,194237
163692,194332
163701,194329
163711,194372
163722,194451
163731,194446
163742,194500
163751,194490
163762,194514
163771,194459
163782,194469
163791,194409
163846,194318
163853,194387
163905,194401
163912,194222
163963,193591
163973,193468
164022,193319
164031,193342
164041,193094
164051,192994
164061,192884
164071,192833
164081,192844
164091,192855
164101,192927
164111,192930
164121,192894
164131,192859
164141,192799
164151,192791
164161,192781
164171,192784
164181,192838
164191,192833
164201,192835
164211,192885
164221,192900
164231,192941
164241,193019
164251,193060
164261,193118
164271,193141
164281,193138
164291,193132
164301,193095
164311,193032
164321,192994
164331,192924
164341,192880
164394,192897
164402,192855
164411,192836
164421,192916
164431,193031
164441,193176
164451,193279
164461,193396
164471,193517
164516,193932
164522,194123
164531,194084
164576,193716
164583,193599
164593,193508
164644,193407
164654,193414
164662,193388
164671,193363
164681,193323
164691,193265
164701,193222
164711,193199
164721,193114
164731,193057
164743,192977
164793,193215
164802,193312
164812,193323
164822,193312
164832,193256
164843,193175
164852,193072
164862,193018
164871,192987
164881,192955
164891,192961
164903,192995
164911,193089
164924,193137
164932,193188
164942,193202
164951,193259
164962,193285
164971,193306
164983,193314
164993,193325
165002,193403
165011,193416
165022,193456
165033,193462
165041,193453
165083,193517
165092,193551
165102,193572
165113,193558
165123,193527
165132,193493
165143,193437
165154,193358
165163,193267
165172,193171
165183,193166
165192,193145
165202,193070
165212,193125
165222,193052
165231,193032
165243,192932
165253,192878
165264,192782
165273,192755
165282,192749
165292,192751
165302,192691
165313,192704
165322,192732
165332,192735
165383,192865
165394,192865
165445,192845
165453,192836
165500,192861
165514,192733
165523,192757
165606,193026
165616,192810
165624,192661
165633,192562
165682,192088
165726,192865
165732,191939
165742,191926
165752,191924
165762,191904
165772,191900
165782,191871
165792,191835
165802,191836
165812,191810
165822,191792
165832,191753
165842,191688
165852,191687
165862,191698
165872,191747
165882,191791
165892,191835
165902,191878
165912,191916
165922,191970
165932,192010
165942,192058
166005,192242
166013,192264
166022,192278
166032,192318
166042,192329
166052,192346
166062,192376
166072,192368
166082,192376
166092,192383
166102,192403
166112,192404
166122,192405
166132,192414
166142,192425
166152,192422
166162,192444
166172,192442
166182,192481
166235,192628
166244,192670
166253,192689
166303,192886
166366,193199
166372,193146
166424,192992
166433,192954
166442,192891
166452,192877
166462,192845
166472,192863
166482,192812
166492,192772
166502,192772
166512,192755
166522,192708
166532,192676
166542,192641
166552,192623
166562,192576
166572,192556
166582,192556
166592,192549
166602,192486
166612,192507
166622,192540
166632,192606
166642,192686
166652,192811
166662,192933
166672,193063
166682,193110
166692,193153
166702,193092
166712,193083
166722,193095
166732,193095
166742,193085
166796,192863
166804,193111
166813,193060
166822,193091
166832,193057
166842,192993
166852,192980
166862,192928
166918,192806
166924,192825
166972,192861
166976,192727
167025,192512
167085,192169
167093,192127
167102,192035
167112,192038
167122,192025
167132,192029
167142,192016
167196,192202
167204,192219
167213,192225
167223,192262
167233,192238
167243,192228
167253,192211
167263,192205
167273,192234
167283,192239
167293,192260
167303,192254
167313,192254
167323,192275
167333,192295
167343,192308
167353,192338
167363,192328
167373,192323
167383,192331
167393,192336
167403,192324
167413,192309
167423,192287
167433,192244
167443,192230
167453,192182
167463,192162
167473,192184
167483,192197
167493,192226
167503,192312
167513,192379
167523,192482
167533,192581
167543,192710
167594,193014
167640,192985
167654,193212
167697,193270
167704,193316
167758,192916
167763,192926
167774,192832
167784,192719
167793,192610
167803,192515
167813,192418
167823,192349
167833,192341
167843,192323
167853,192323
167863,192343
167873,192331
167883,192335
167893,192308
167903,192289
167913,192290
167923,192234
167933,192197
167943,192155
168003,192017
168015,192051
168023,192069
168033,192055
168043,192071
168053,192063
168063,192041
168073,191973
168083,192012
168093,191950
168103,191925
168113,191845
168123,191863
168133,191863
168143,191866
168153,191858
168163,191961
168173,192043
168183,192105
168193,192148
168203,192258
168213,192345
168223,192313
168233,192321
168243,192450
168253,192574
168263,192667
168318,193278
168375,193816
168385,193904
168435,194097
168481,194061
168495,194022
168505,194203
168514,194227
168523,194370
168533,194445
168543,194523
168553,194605
168563,194602
168573,194612
168583,194643
168593,194712
168603,194724
168613,194752
168623,194803
168633,194875
168643,194893
168653,194924
168663,194897
168673,194860
168683,194676
168693,194559
168703,194418
168713,194320
168723,194151
168733,194034
168743,193950
168795,193533
168804,193351
168814,193337
168823,193294
168833,193254
168843,193226
168853,193215
168863,193230
168874,193377
168884,193494
168894,193599
168903,193669
168914,193806
168924,193800
168934,193772
168943,193673
168954,193603
168964,193451
168974,193234
168983,192974
168994,192753
169004,192495
169014,192290
169059,191792
169064,191870
169115,192021
169125,192143
169168,192219
169174,192234
169187,192290
169274,192344
169284,192416
169293,192448
169303,192479
169315,192587
169323,192553
169333,192589
169343,192588
169354,192691
169364,192693
169374,192698
169383,192539
169394,192629
169403,192571
169414,192641
169424,192696
169434,192730
169444,192761
169454,192771
169464,192811
169473,192731
169484,192722
169493,192657
169504,192676
169513,192515
169523,192423
169564,192216
169573,192117
169584,191999
169594,192018
169604,191957
169614,191939
169624,191818
169635,191853
169644,191821
169654,191837
169664,191879
169674,191829
169684,191949
169693,191983
169704,192064
169713,192126
169724,192196
169734,192251
169744,192275
169753,192257
169764,192281
169775,192309
169784,192371
169793,192516
169803,192541
169813,192477
169823,192354
169871,192104
169922,192071
169936,192185
169944,192297
169992,192375
170004,192717
170015,192702
170091,191983
170105,191767
170156,192309
170165,190955
170174,190873
170184,190828
170195,190815
170204,190788
170214,190719
170224,190695
170235,190681
170245,190649
170255,190677
170265,190688
170274,190731
170284,190728
170294,190748
170304,190764
170315,190797
170325,190801
170335,190838
170345,190860
170398,191082
170406,191188
170415,191308
170424,191421
170434,191562
170444,191684
170454,191808
170464,191910
170474,192121
170484,192202
170494,192259
170504,192261
170515,192308
170525,192393
170535,192434
170545,192501
170554,192546
170564,192560
170574,192521
170584,192438
170595,192323
170605,192212
170615,192091
170625,192034
170634,192020
170644,191984
170654,191915
170664,191825
