elapsed_ms,ir
55709,208653
55719,208676
55729,208724
55739,208657
55749,208667
55759,208672
55769,208678
55779,208666
55789,208657
55800,208672
55810,208671
55820,208684
55829,208664
55840,208666
55850,208670
55860,208655
55869,208654
55879,208671
55890,208648
55900,208633
55909,208647
55920,208643
55930,208650
55940,208643
55949,208646
55960,208643
55970,208643
55980,208644
55989,208625
56000,208647
56010,208601
56020,208629
56029,208614
56040,208618
56050,208634
56060,208651
56069,208644
56080,208644
56089,208650
56100,208634
56109,208645
56119,208644
56129,208643
56139,208607
56149,208646
56160,208632
56170,208648
56180,208625
56189,208641
56200,208635
56210,208625
56219,208639
56230,208662
56239,208625
56250,208649
56268,208673
56272,208607
56299,208676
56310,208649
56320,208640
56330,208655
56340,208662
56350,208643
56360,208640
56369,208603
56380,208631
56389,208648
56400,208626
56410,208616
56420,208602
56429,208610
56440,208578
56450,208566
56460,208571
56469,208575
56480,208552
56490,208580
56500,208577
56509,208604
56520,208670
56530,208583
56539,208652
56549,208594
56560,208600
56569,208645
56579,208647
56589,208640
56600,208639
56610,208643
56620,208639
56629,208664
56640,208657
56650,208682
56659,208641
56669,208681
56680,208688
56690,208701
56700,208569
56709,208693
56720,208703
56730,208702
56740,208701
56749,208692
56760,208723
56770,208720
56780,208719
56789,208705
56816,208716
56818,208580
56821,208673
56851,208689
56880,208834
56889,208632
56899,208661
56909,208682
56919,208704
56929,208655
56939,208654
56949,208681
56959,208685
56970,208660
56980,208690
56990,208722
56999,208630
57009,208617
57019,208719
57030,208634
57039,208658
57080,208707
57089,208578
57099,208647
57109,208601
57119,208673
57129,208656
57139,208631
57150,208597
57160,208544
57169,208658
57179,208637
57190,208681
57202,208702
57209,208584
57221,208606
57229,208638
57239,208653
57249,208658
57259,208665
57270,208670
57279,208660
57289,208648
57299,208671
57309,208655
57320,208764
57330,208672
57339,208647
57349,208657
57359,208658
57369,208604
57379,208645
57409,208698
57440,208666
57471,208723
57479,208603
57489,208583
57499,208591
57509,208598
57519,208619
57529,208605
57539,208594
57549,208576
57559,208585
57569,208582
57579,208555
57589,208579
57599,208574
57609,208560
57619,208576
57629,208603
57639,208506
57649,208547
57659,208540
57669,208537
57679,208518
57689,208529
57699,208512
57709,208549
57720,208650
57730,208738
57739,208542
57750,208685
57759,208586
57769,208581
57779,208579
57789,208603
57799,208552
57809,208574
57819,208576
57829,208590
57839,208570
57849,208586
57859,208604
57869,208619
57879,208589
57889,208609
57899,208609
57909,208624
57920,208646
57930,208610
57940,208619
57950,208593
57961,208613
57971,208601
58001,208539
58010,208587
58028,208439
58033,208546
58041,208566
58072,208598
58081,208554
58090,208515
58100,208546
58110,208515
58120,208568
58130,208631
58140,208574
58150,208582
58160,208571
58170,208563
58180,208553
58190,208555
58200,208554
58210,208515
58220,208485
58230,208508
58240,208473
58250,208502
58260,208469
58270,208468
58280,208471
58290,208457
58300,208475
58310,208466
58320,208459
58330,208477
58340,208488
58350,208474
58360,208502
58370,208480
58380,208472
58390,208443
58400,208474
58410,208494
58420,208483
58430,208506
58440,208509
58450,208520
58460,208551
58470,208561
58480,208577
58490,208582
58500,208602
58510,208605
58520,208628
58531,208531
58540,208576
58550,208556
58560,208544
58570,208568
58580,208567
58611,208553
58640,208535
58650,208461
58683,208156
58691,208136
58700,208033
58710,208012
58720,208016
58730,207931
58740,207898
58750,207835
58760,207792
58770,207762
58780,207761
58790,207744
58800,207774
58810,207765
58820,207710
58830,207708
58840,207622
58850,207578
58860,207559
58870,207612
58880,207482
58890,207562
58900,207498
58910,207543
58941,207609
58950,207618
58961,207563
58972,207561
58980,207673
58991,207656
59000,207737
59011,207788
59020,207793
59030,207794
59040,207833
59073,207926
59082,207837
59090,207988
59101,207925
59111,207956
59121,207956
59130,208064
59140,208096
59151,208120
59160,208150
59170,208167
59180,208203
59191,208250
59222,208311
59252,208325
59260,208319
59286,208363
59289,208314
59292,208325
59322,208350
59334,208272
59381,208659
59390,208682
59400,208789
59411,208840
59420,208811
59431,208901
59440,208844
59451,208884
59460,208838
59471,208843
59480,208825
59491,208851
59500,208784
59511,208799
59520,208702
59531,208697
59540,208667
59551,208618
59560,208474
59571,208418
59580,208183
59590,207979
59600,207761
59611,207682
59620,207528
59631,207564
59640,207439
59651,207451
59660,207365
59671,207346
59680,207260
59691,207282
59700,207255
59711,207347
59741,207389
59751,207483
59760,207512
59770,207474
59781,207562
59790,207425
59800,207458
59811,207560
59820,207594
59831,207842
59840,207897
59850,208010
59861,208181
59870,208164
59880,208229
59900,208199
59903,208380
59910,208403
59941,208448
59971,208832
59981,208984
59990,209042
60000,209223
60011,209537
60020,209532
60030,209572
60040,209570
60051,209748
60060,209689
60070,209762
60080,209779
60091,209933
60100,209822
60110,209828
60142,209915
60150,209925
60161,210007
60170,210012
60181,210099
60190,210112
60200,209987
60210,210007
60221,210003
60230,209881
60240,209752
60250,209835
60261,209914
60270,209978
60280,209931
60290,209944
60301,209976
60311,209975
60321,209976
60330,209960
60341,209979
60351,209903
60361,209914
60370,209945
60381,209971
60391,209971
60401,209969
60412,209989
60421,210016
60431,210122
60441,210205
60452,210259
60461,210273
60487,210205
60501,210376
60532,210078
60580,210254
60583,209835
60592,209924
60601,209838
60612,209884
60621,209838
60631,209902
60641,209983
60651,210026
60662,210109
60671,210160
60681,210176
60692,210181
60701,210199
60711,210244
60721,210290
60731,210345
60742,210390
60751,210472
60761,210560
60772,210641
60781,210561
60792,210506
60801,210374
60811,210274
60822,210175
60831,210076
60841,210019
60852,209885
60861,209683
60871,209266
60881,208787
60892,208167
60901,207469
60911,206569
60942,203852
60952,203137
60961,202531
60972,201887
60981,201241
60991,200413
61001,199822
61012,199278
61021,198685
61031,198025
61041,197416
61052,196997
61061,196755
61071,196825
61081,197310
61092,198017
61101,198720
61132,201120
61142,201477
61173,201791
61199,202087
61212,202113
61221,202506
61231,203021
61241,203750
61252,204387
61261,205106
61271,205495
61281,205864
61291,205942
61302,206251
61311,206485
61342,206276
61351,205744
61361,205122
61371,204570
61382,204124
61391,204080
61401,204180
61412,204416
61421,204650
61431,204863
61441,205083
61451,205234
61462,205562
61471,205866
61481,206224
61491,206468
61502,206737
61511,206922
61521,207009
61531,207066
61542,207113
61551,207125
61561,207149
61571,207080
61582,206973
61591,206816
61601,206669
61611,206506
61622,206483
61631,206545
61641,206692
61651,206905
61662,207219
61671,207469
61681,207663
61691,207825
61702,208029
61711,208107
61759,208431
61771,208559
61784,208578
61791,208716
61823,208521
61832,208445
61865,208616
61873,208553
61881,208718
61892,208917
61901,208938
61912,209031
61921,208965
61932,209026
61941,208948
61951,208906
61961,208844
61971,208727
61982,208685
61991,208538
62001,208438
62011,208336
62022,208328
62031,208197
62041,208248
62051,208336
62062,208446
62071,208426
62081,208386
62091,208398
62102,208457
62111,208359
62142,208420
62153,208507
62161,208577
62171,208637
62182,208804
62191,208778
62201,208742
62211,208757
62222,208823
62231,208667
62241,208563
62251,208488
62261,208410
62271,208345
62281,208175
62291,208196
62302,208268
62311,208046
62321,207990
62331,207969
62341,207898
62351,207779
62361,207760
62371,207752
62404,207694
62411,207483
62422,207357
62452,206775
62463,206565
62489,206467
62502,206874
62512,207221
62544,207826
62552,207971
62561,208221
62571,208537
62581,208775
62591,208976
62601,209080
62611,209115
62621,209097
62631,209048
62641,208975
62651,208838
62661,208780
62671,208732
62681,208621
62691,208557
62701,208490
62712,208449
62721,208350
62731,208291
62742,208286
62751,208229
62761,208198
62772,208160
62782,208212
62791,208302
62801,208355
62812,208474
62821,208559
62832,208607
62842,208587
62851,208597
62862,208603
62871,208656
62881,208655
62892,208713
62901,208751
62912,208768
62943,208966
62951,208988
62962,209032
62971,208989
62981,209007
62991,209041
63001,209062
63012,209108
63022,209147
63032,209174
63042,209247
63051,209338
63062,209388
63072,209432
63102,209508
63105,208160
63112,209693
63121,209781
63132,209800
63142,209844
63153,209842
63162,209798
63173,209775
63183,209831
63193,209944
63202,209983
63213,209998
63223,209971
63232,209940
63242,209908
63252,209945
63263,209896
63272,209943
63303,209741
63314,209888
63323,209911
63370,210019
63384,209921
63414,209508
63423,209926
63453,209989
63463,209910
63492,209184
63502,208903
63512,208647
63522,208460
63533,208395
63542,208495
63552,208691
63562,208921
63572,209203
63582,209365
63592,209433
63602,209787
63613,210115
63622,210317
63632,210185
63642,210062
63652,209844
63662,209765
63673,209340
63682,208738
63692,208106
63702,207125
63712,206233
63722,205587
63732,204355
63743,203092
63752,202585
63762,202125
63772,201608
63782,201283
63793,200950
63802,200850
63812,201244
63843,204508
63853,206316
63863,207574
63872,208513
63882,209286
63892,210234
63903,211067
63912,212018
63922,213682
63932,215636
63942,217345
63953,217995
63962,217794
63972,217711
63983,217645
63992,217530
64025,217666
64034,217833
64063,216891
64093,213162
64123,206559
64132,204840
64142,204768
64152,204897
64162,204827
64172,204242
64182,203131
64193,202202
64202,201003
64212,199898
64223,199279
64254,197479
64264,196779
64273,196282
64282,196123
64292,195827
64303,195705
64312,195399
64322,195372
64332,195294
64342,195343
64353,195699
64362,195994
64372,196176
64383,196316
64392,195744
64402,195423
64412,195331
64422,195677
64433,196445
64442,197066
64452,197665
64463,198298
64472,198200
64482,198021
64492,197293
64502,196304
64513,194911
64522,193024
64532,190412
64542,188290
64552,186760
64562,185740
64572,185022
64582,184595
64593,184515
64602,184200
64612,183859
64660,181785
64692,182360
64704,183469
64735,182372
64742,182720
64753,183671
64762,184620
64772,185823
64783,186935
64792,187509
64803,187781
64812,187505
64823,187029
64832,186102
64842,185434
64852,184643
64863,183659
64872,182620
64882,182119
64893,181844
64902,181295
64912,180662
64922,180174
64932,179764
64942,179474
64953,179830
64962,179954
64972,180052
64983,179914
64992,179604
65003,179368
65012,179368
65042,179754
65053,179775
65063,179502
65073,178798
65082,178021
65092,177253
65103,176578
65112,175973
65122,175782
65132,176132
65143,176924
65152,178224
65163,179832
65174,180780
65183,180858
65194,180151
65203,179304
65213,178434
65224,177631
65233,176835
65265,179474
65294,173073
65305,172840
65334,172956
65343,173066
65353,173395
65363,173896
65373,174550
65384,175029
65393,175566
65403,176460
65414,177711
65423,179162
65434,180366
65444,181393
65473,183750
65484,184011
65493,184035
65503,184252
65513,184744
65523,185427
65533,186375
65543,187576
65553,188622
65563,189512
65573,190391
65583,191205
65593,192032
65603,192714
65613,193391
65623,194147
65633,194826
65643,195374
65653,195533
65663,195578
65673,195756
65683,196163
65693,196593
65703,197134
65714,197486
65724,198285
65733,199083
65743,199913
65753,200896
65763,201760
65774,202374
65783,202667
65794,202838
65803,202813
65813,202764
65844,202523
65876,203225
65885,204575
65915,207067
65925,207130
65954,206707
65965,206600
65973,206833
65983,206797
65993,206991
66004,207023
66013,207244
66023,207236
66033,207193
66044,206984
66053,206868
66063,206724
66073,206575
66084,206647
66093,206679
66103,206653
66113,206806
66123,207107
66134,207517
66143,207862
66153,208021
66164,208130
66173,207807
66183,207031
66193,206242
66203,205392
66213,204774
66244,204492
66254,204507
66263,204652
66273,204804
66283,205096
66293,205278
66304,205522
66313,205503
66323,205357
66334,205165
66343,205162
66353,205139
66364,205274
66373,205321
66383,205394
66393,205718
66403,206097
66413,206374
66424,206712
66433,207160
66443,207710
66453,207995
66464,208481
66494,209572
66521,209980
66533,210415
66545,210374
66572,210368
66583,210948
66594,211284
66623,211822
66654,211795
66664,211938
66674,212006
66683,211785
66694,211776
66703,211632
66713,211581
66723,211662
66734,211984
66743,212179
66753,212277
66763,212380
66773,212424
66784,212542
66793,212398
66803,212107
66813,211996
66824,212023
66833,211895
66843,211961
66853,211919
66864,211982
66873,211690
66883,211420
66894,211165
66904,210845
66913,210436
66923,210270
66933,210050
66943,209844
66953,209642
66964,209287
66973,208455
66984,207745
66993,206828
67004,206162
67013,205157
67044,203487
67054,203783
67064,204190
67074,204483
67083,204681
67093,204911
67103,205121
67114,205495
67123,205689
67133,205964
67144,206360
67154,206794
67164,207246
67174,207676
67184,208004
67194,208054
67204,208241
67234,208761
67244,209058
67254,209286
67264,209610
67274,209839
67283,209965
67294,210268
67304,210539
67314,210675
67324,210701
67335,210803
67343,210832
67353,210856
67364,210956
67373,210901
67383,210834
67393,210784
67404,210733
67436,210858
67446,211002
67475,210961
67487,211013
67516,211056
67545,210912
67575,210732
67585,210610
67594,210553
67604,210470
67614,210399
67625,210312
67634,210301
67645,210285
67654,210240
67664,210231
67675,210160
67684,210134
67694,210157
67705,210160
67714,210205
67724,210257
67735,210281
67744,210373
67754,210434
67764,210521
67775,210573
67784,210664
67794,210746
67804,210834
67814,210948
67847,211284
67854,211480
67864,211644
67874,211900
67884,212038
67894,212240
67905,212380
67914,212559
67925,212615
67934,212679
67945,212740
67954,212866
67965,213051
67974,213098
67984,213220
67995,213249
68004,213261
68014,213265
68025,213199
68034,213063
68045,212954
68054,212914
68064,212847
68075,212698
68084,212538
68115,212442
68125,212420
68164,212254
68205,212012
68215,211800
68259,211596
68265,211426
68275,211588
68284,211685
68294,211728
68305,211604
68314,211641
68325,211469
68334,211459
68345,211380
68354,211567
68365,211696
68374,211949
68384,211994
68395,212154
68404,212254
68415,212268
68424,212261
68434,212210
68445,212197
68454,212223
68465,212171
68474,212163
68485,212159
68494,212172
68505,212217
68514,212265
68524,212359
68535,212413
68544,212467
68554,212451
68565,212446
68574,212415
68585,212330
68594,212242
68604,212065
68615,211994
68646,211247
68655,210944
68664,210724
68675,210581
68684,210548
68695,210636
68704,210727
68735,211322
68744,211752
68777,212014
68784,212099
68815,211928
68825,211877
68834,211818
68845,211859
68854,211800
68864,211784
68875,211974
68884,211948
68895,212059
68904,212017
68915,212083
68924,212010
68934,212025
68945,212137
68954,211993
68964,212053
68975,212111
68984,212084
68994,212097
69005,212197
69014,212156
69055,212273
69065,212288
69074,212315
69084,212308
69095,212392
69104,212346
69115,212408
69124,212331
69135,212379
69144,212299
69155,212366
69164,212258
69175,212343
69184,212219
69195,212354
69204,212202
69214,212194
69225,212313
69234,212140
69245,212304
69254,212127
69265,212308
69274,212183
69285,212281
69294,212171
69305,212279
69314,212146
69357,212053
69364,212133
69394,212194
69405,212158
69436,212098
69475,212057
69484,212075
69494,212063
69504,211964
69514,211978
69524,212037
69534,211995
69544,211977
69554,212070
69564,212060
69574,212021
69584,211981
69594,212080
69604,212038
69614,212073
69624,212060
69634,212108
69644,212073
69654,212112
69664,212080
69674,212126
69684,212120
69694,212138
69704,212135
69714,212148
69725,212122
69735,212112
69746,212138
69755,212114
69766,212128
69775,212111
69785,212114
69796,212084
69805,212081
69816,212063
69847,212081
69855,211977
69864,212044
69875,212036
69885,212053
69896,212032
69905,211991
69915,212027
69926,212012
69935,211984
69946,211982
69955,211984
69966,211985
69975,211961
70016,212002
70026,211853
70057,211918
70067,211882
70075,211887
70105,211906
70116,211884
70124,211880
70136,211848
70145,211814
70156,211828
70165,211837
70176,211821
70185,211765
70196,211765
70205,211756
70216,211758
70246,211756
70249,212027
70256,211709
70265,211744
70275,211684
70285,211661
70296,211655
70305,211687
70315,211658
70326,211641
70335,211625
70346,211607
70356,211616
70365,211577
70376,211598
70385,211545
70396,211571
70405,211511
70416,211546
70425,211488
70435,211511
70445,211487
70455,211475
70465,211481
70475,211425
70485,211405
70495,211425
70505,211424
70515,211435
70525,211420
70535,211439
70545,211461
70555,211401
70565,211425
70575,211406
70585,211460
70595,211430
70605,211433
70615,211451
70649,211332
70679,211380
70685,211318
70696,211342
70706,211339
70735,211321
70745,211186
70755,211295
70786,211297
70817,211217
70827,211279
70856,211263
70865,211266
70875,211261
70885,211276
70895,211256
70905,211254
70915,211228
70926,211224
70935,211202
70945,211226
70955,211215
70965,211183
70975,211178
70985,211171
70995,211139
71006,211137
71015,211125
71047,211074
71055,211109
71066,211158
71076,211150
71085,211090
71095,211066
71105,211055
71115,211049
71126,211064
71136,211096
71146,211038
71155,210975
71166,211050
71175,210970
71186,210975
71196,211044
71206,211034
71215,210939
71226,211012
71256,210954
71266,211002
71275,210907
71285,210901
71296,211006
71306,210840
71316,210913
71325,210877
71335,210867
71345,210882
71355,210847
71366,210964
71376,210963
71386,210961
71395,210841
71406,210967
71415,210886
71425,210884
71435,210859
71464,210852
71477,210924
71487,210901
71515,210958
71520,210975
71526,210910
71556,210806
71565,210785
71576,210885
71605,210774
71615,210813
71626,210886
71635,210905
71645,210847
71655,210854
71665,210833
71675,210865
71685,210851
71695,210805
71705,210837
71715,210819
71725,210815
71735,210833
71745,210803
71755,210809
71765,210744
71775,210738
71785,210734
71796,210845
71805,210735
71815,210763
71825,210780
71856,210775
71867,210935
71875,210813
71885,210873
71895,210883
71905,210889
71915,210896
71925,210885
71935,210891
71945,210886
71956,210872
71966,210886
71976,210871
71986,210816
71996,210737
72006,210704
72016,210634
72026,210584
72036,210520
72046,210512
72075,210482
72087,210471
72098,210455
72107,210417
72136,210454
72167,210495
72177,210468
72186,210514
72196,210501
72206,210479
72216,210477
72226,210470
72257,210522
72267,210503
72276,210422
72286,210462
72296,210475
72306,210527
72316,210517
72326,210553
72336,210562
72346,210581
72356,210601
72366,210638
72376,210645
72386,210632
72396,210644
72406,210637
72416,210674
72426,210657
72436,210659
72446,210673
72456,210697
72466,210707
72476,210751
72486,210767
72497,210773
72506,210795
72516,210833
72526,210842
72537,210851
72546,210844
72556,210824
72566,210831
72576,210799
72586,210818
72596,210800
72606,210779
72616,210796
72649,210861
72657,210810
72667,210882
72676,210890
72707,210869
72718,210813
72748,210779
72777,210739
72787,210839
72817,210735
72827,210801
72836,210691
72846,210678
72856,210783
72866,210745
72876,210732
72886,210579
72896,210648
72906,210624
72916,210616
72927,210578
72936,210531
72946,210616
72956,210589
72966,210520
72976,210617
72986,210582
72996,210584
73006,210551
73016,210555
73048,210555
73057,210521
73067,210428
73076,210552
73086,210500
73096,210500
73106,210538
73116,210492
73126,210522
73136,210525
73146,210520
73156,210507
73166,210522
73176,210514
73186,210516
73196,210518
73206,210544
73216,210463
73226,210450
73236,210450
73246,210442
73256,210364
73266,210340
73276,210390
73286,210419
73296,210358
73306,210360
73316,210370
73327,210441
73357,210442
73388,210341
73397,210339
73426,210300
73438,210349
73465,210322
73467,210525
73477,210385
73488,210443
73496,210372
73506,210377
73516,210330
73526,210387
73536,210301
73546,210374
73556,210318
73566,210378
73576,210357
73586,210423
73596,210388
73606,210437
73616,210412
73626,210432
73636,210453
73646,210526
73656,210480
73666,210504
73676,210481
73686,210512
73696,210433
73706,210443
73716,210428
73726,210430
73736,210421
73746,210416
73756,210408
73766,210445
73776,210325
73786,210314
73796,210316
73806,210396
73816,210337
73847,210387
73856,210357
73867,210473
73876,210376
73886,210385
73897,210515
73907,210504
73916,210411
73926,210443
73936,210452
73946,210462
73956,210465
73967,210569
73977,210573
74011,210616
74036,210472
74039,210443
74048,210443
74058,210584
74066,210459
74097,210510
74107,210496
74136,210444
74147,210503
74156,210495
74166,210502
74176,210483
74186,210458
74196,210445
74206,210443
74216,210452
74226,210487
74237,210485
74270,210395
74278,210389
74288,210457
74297,210437
74307,210437
74317,210420
74327,210430
74337,210443
74347,210472
74357,210528
74367,210526
74377,210529
74387,210538
74398,210541
74407,210579
74417,210526
74427,210530
74437,210529
74447,210483
74457,210485
74467,210456
74477,210489
74487,210475
74497,210461
74507,210459
74518,210462
74527,210447
74537,210420
74547,210394
74557,210396
74567,210401
74577,210393
74587,210392
74597,210405
74607,210413
74639,210301
74648,210371
74678,210411
74688,210411
74718,210432
74728,210461
74739,210440
74770,210419
74807,210475
74818,210466
74827,210481
74837,210471
74847,210499
74857,210492
74867,210503
74877,210463
74887,210495
74897,210467
74907,210448
74918,210440
74927,210416
74937,210414
74947,210432
74957,210398
74967,210420
74977,210424
74987,210415
74998,210384
75008,210390
75041,210466
75048,210390
75058,210389
75067,210360
75078,210337
75089,210347
75097,210415
75107,210484
75118,210324
75127,210425
75138,210358
75148,210386
75158,210377
75167,210433
75177,210336
75188,210363
75197,210434
75207,210437
75218,210369
75248,210351
75257,210427
75267,210386
75277,210407
75287,210437
75297,210426
75308,210420
75318,210347
75327,210457
75337,210485
75348,210486
75357,210460
75368,210367
75377,210434
75388,210414
75397,210410
75407,210388
75418,210424
75427,210404
75470,210444
75478,210403
75508,210271
75547,210389
75557,210386
75567,210347
75600,210345
75608,210386
75617,210384
75628,210397
75637,210322
75647,210320
75657,210333
75667,210317
75678,210408
75688,210404
75697,210314
75707,210315
75718,210413
75727,210334
75738,210416
75748,210418
75757,210310
75767,210333
75777,210329
75787,210301
75798,210440
75808,210416
75818,210431
75859,210305
75867,210303
75878,210302
75887,210361
75897,210303
75907,210301
75917,210354
75927,210300
75937,210304
75947,210256
75958,210431
75968,210435
75978,210447
75988,210443
75997,210276
76007,210288
76017,210267
76027,210267
76038,210429
76070,210436
76074,210416
76078,210342
76119,210381
76150,210313
76159,210232
76167,210343
76177,210323
76188,210424
76197,210312
76208,210410
76218,210434
76250,210406
76259,210235
76268,210394
76277,210370
76288,210471
76298,210485
76308,210453
76317,210318
76328,210435
76338,210448
76348,210425
76357,210321
76368,210418
76378,210430
76388,210442
76397,210328
76408,210431
76418,210433
76428,210438
76437,210307
76448,210442
76458,210447
76468,210457
76477,210389
76488,210444
76498,210448
76508,210458
76517,210393
76528,210432
76538,210441
76548,210421
76558,210449
76568,210470
76578,210482
76588,210485
76597,210449
76608,210437
76641,210318
76648,210275
76658,210064
76700,210271
76728,210372
76740,210345
76747,210330
76781,210333
76789,210325
76798,210420
76808,210442
76818,210443
76828,210435
76839,210434
76849,210442
76859,210428
76868,210432
76879,210418
76889,210419
76899,210425
76909,210414
76918,210414
76928,210463
76938,210462
76948,210478
76958,210467
76968,210468
76978,210466
76988,210447
76998,210439
77008,210463
77049,210421
77059,210499
77068,210414
77078,210435
77088,210427
77098,210432
77108,210429
77119,210405
77129,210380
77139,210392
77149,210411
77158,210440
77168,210464
77178,210468
77188,210457
77199,210454
77209,210443
77218,210422
77228,210433
77239,210382
77249,210423
77259,210422
77269,210430
77278,210422
77289,210400
77328,210516
77340,210438
77372,210298
77379,210431
77389,210415
77421,210412
77428,210411
77462,210397
77464,210380
77469,210375
77480,210356
77489,210372
77498,210335
77509,210294
77518,210308
77529,210316
77539,210309
77549,210297
77558,210340
77568,210219
77579,210236
77589,210266
77598,210379
77609,210281
77619,210363
77629,210402
77638,210514
77649,210486
77659,210548
77669,210585
77678,210601
77689,210555
77699,210565
77709,210550
77718,210549
77728,210543
77739,210510
77749,210470
77758,210484
77769,210485
77779,210484
77789,210362
77798,210436
77809,210455
77849,210368
77859,210444
77869,210382
77879,210422
77889,210412
77899,210410
77909,210428
77918,210459
77928,210458
77970,210315
77980,210408
78010,210413
78018,210396
78058,210334
78089,210418
78099,210574
78139,210483
78148,210480
78159,210495
78169,210502
78179,210486
78189,210468
78198,210422
78209,210509
78219,210526
78230,210531
78239,210525
78280,210548
78289,210528
78299,210410
78308,210517
78318,210514
78328,210509
78338,210518
78348,210505
78359,210591
78369,210580
78378,210519
78388,210525
78398,210550
78408,210541
78418,210549
78428,210527
78438,210524
78448,210543
78458,210525
78468,210553
78478,210540
78488,210459
78498,210480
78508,210481
78518,210443
78528,210438
78538,210391
78548,210393
78558,210400
78568,210389
78578,210342
78588,210348
78598,210377
78608,210358
78650,210378
78691,210295
78700,210419
78713,210354
78742,210375
78772,210377
78778,210310
78788,210258
78798,210265
78808,210240
78818,210279
78828,210278
78838,210352
78848,210299
78858,210342
78868,210326
78878,210389
78888,210377
78898,210411
78908,210367
78919,210432
78928,210389
78938,210418
78948,210404
78959,210470
78968,210465
78978,210521
78989,210530
79000,210591
79010,210626
79049,210694
79059,210736
79069,210709
79079,210740
79089,210759
79098,210734
79108,210769
79120,210770
79130,210781
79138,210805
79149,210798
79158,210875
79169,210853
79178,210926
79190,210954
79199,210973
79210,211024
79220,211061
79230,211063
79238,211134
79269,211116
79279,211123
79289,211104
79299,211110
79310,211108
79320,211090
79329,211097
79339,211184
79350,211144
79359,211134
79369,211148
79381,211152
79389,211135
79399,211182
79410,211164
79419,211175
79429,211155
79440,211181
79449,211199
79480,211346
79491,211300
79499,211414
79531,211393
79538,211415
79572,211282
79579,211307
79610,211478
79621,211408
79631,211434
79639,211413
79649,211490
79659,211474
79669,211477
79679,211494
79689,211477
79699,211443
79709,211431
79719,211428
79729,211389
79739,211375
79749,211395
79759,211476
79769,211483
79779,211557
79789,211624
79799,211645
79809,211638
79819,211680
79829,211714
79872,211683
79880,211708
79889,211695
79899,211712
79909,211682
79919,211723
79929,211711
79939,211745
79949,211779
79959,211809
79969,211839
79979,211820
79989,211822
79999,211838
80009,211843
80019,211840
80029,211808
80039,211822
80049,211825
80059,211789
80069,211773
80111,211774
80121,211786
80162,211692
80169,211730
80199,211609
80209,211675
80219,211747
80253,211711
80259,211665
80270,211703
80279,211680
80289,211743
80299,211743
80309,211728
80319,211724
80329,211638
80339,211707
80349,211711
80359,211710
80369,211709
80379,211705
80389,211701
80399,211694
80409,211686
80419,211674
80429,211658
80439,211632
80449,211649
80459,211644
80469,211635
80479,211631
80489,211653
80499,211650
80509,211675
80519,211666
80529,211673
80539,211672
80549,211676
80559,211665
80569,211646
80580,211697
80589,211613
80599,211595
80610,211690
80644,211438
80650,211514
80659,211569
80669,211529
80680,211676
80689,211544
80700,211676
80709,211568
80742,211624
80752,211548
80761,211597
80792,211494
80800,211494
80840,211361
80849,211457
80859,211344
80869,211319
80879,211373
80890,211449
80899,211361
80909,211391
80919,211411
80930,211459
80939,211422
80949,211421
80959,211463
80970,211497
80979,211455
80989,211464
80999,211481
81010,211489
81043,211316
81049,211476
81060,211167
81070,211430
81079,211404
81090,211383
81099,211380
81110,211358
81120,211341
81130,211311
81140,211304
81150,211295
81160,211305
81170,211300
81180,211299
81190,211280
81200,211244
81210,211205
81220,211159
81230,211120
81240,211114
81250,211122
81260,211104
81270,211122
81280,211141
81290,211128
81300,211132
81310,211128
81320,211130
81330,211144
81340,211128
81350,211111
81381,211214
81392,211225
81461,211388
81493,211437
81502,211299
81513,211466
81521,211531
81562,211412
81570,211454
81580,211410
81590,211399
81600,211415
81610,211410
81620,211393
81630,211416
81640,211409
81650,211366
81660,211374
81670,211378
81680,211354
81691,211345
81700,211341
81711,211325
81720,211335
81731,211432
81740,211431
81751,211412
81760,211450
81770,211471
81781,211482
81790,211490
81800,211461
81811,211487
81850,211580
81861,211550
81870,211456
81880,211454
81891,211476
81900,211554
81911,211504
81920,211496
81931,211500
81940,211524
81950,211540
81960,211542
81971,211542
81980,211589
81991,211624
82000,211667
82011,211608
82020,211663
82030,211659
82040,211751
82051,211644
82060,211768
82071,211705
82104,211764
82135,211809
82143,211812
82172,211501
82176,211535
82180,211798
82212,211817
82222,211808
82283,211846
82293,211542
82303,211936
82311,211813
82320,211918
82331,211941
82341,211927
82350,211870
82360,211917
82371,211966
82380,211982
82391,212025
82400,211999
82411,212089
82420,212105
82431,212176
82440,212161
82451,212213
82460,212199
82470,212168
82480,212241
82491,212298
82500,212274
82511,212263
82521,212272
82530,212228
82541,212353
82550,212271
82560,212383
82571,212517
82580,212481
82591,212612
82600,212516
82611,212688
82643,212844
82652,213007
82661,213082
82670,213128
82680,213205
82690,213207
82701,213335
82710,213193
82720,213314
82731,213416
82740,213315
82751,213455
82792,213827
82830,214306
82863,214694
82870,214611
82880,214588
82891,214726
82900,214652
82910,214704
82920,214845
82930,214882
82941,214982
82950,214805
82960,214718
82970,214644
82981,214681
82990,214535
83000,214598
83010,214710
83051,214981
83062,214768
83071,214738
83080,214438
83090,214333
83100,214221
83110,214179
83121,214445
83131,214324
83141,214394
83151,214649
83161,214848
83171,214990
83180,214965
83190,215104
83200,215128
83232,214704
83241,215183
83251,215185
83261,215150
83271,215143
83282,215118
83291,215120
83301,215077
83310,215049
83321,215030
83331,214959
83341,214926
83351,214888
83361,214862
83372,214855
83381,214832
83390,214846
83401,214813
83442,214800
83451,214729
83483,214759
83524,214677
83531,214623
83542,214622
83582,214526
83592,214537
83602,214467
83612,214400
83621,214385
83631,214347
83641,214305
83652,214253
83661,214199
83671,214174
83681,214159
83692,214136
83701,214157
83711,214097
83721,214088
83732,214059
83741,214023
83751,213993
83761,213982
83772,213959
83781,213955
83791,213979
83801,214002
83812,214013
83845,214127
83852,214184
83862,214279
83871,214215
83881,214242
83892,214201
83901,214197
83911,214194
83921,214197
83932,214213
83941,214226
83951,214219
83961,214211
83972,214231
83981,214165
83991,214190
84001,214205
84012,214234
84021,214155
84063,214104
84102,214109
84142,214119
84151,214169
84161,214019
84172,214044
84181,214017
84192,213927
84201,213818
84212,213803
84222,213719
84231,213747
84241,213716
84278,213611
84292,213768
84303,213779
84311,213809
84322,213860
84331,213870
84341,213854
84352,213866
84361,213830
84372,213854
84381,213859
84392,213864
84401,213846
84412,213871
84421,213861
84432,213875
84441,213899
84451,213899
84462,213947
84471,213973
84481,213936
84491,213969
84502,214027
84511,214018
84521,214027
84531,214022
84542,214080
84551,214058
84561,213984
84572,214025
84581,214027
84592,214055
84601,214006
84612,214070
84645,214037
84653,214010
84685,214040
84689,213866
84692,214183
84702,214008
84742,214306
84751,214090
84792,214223
84801,214316
84811,214274
84821,214222
84832,214276
84841,214166
84852,214227
84861,214175
84872,214192
84881,214096
84892,214180
84901,214074
84912,214135
84921,214009
84931,214050
84942,214093
84951,213950
84961,213889
84972,214091
84981,213898
84992,214043
85001,213959
85011,213943
85053,214063
85062,213874
85073,213945
85081,213881
85091,213893
85102,213999
85111,213901
85121,213855
85131,213900
85141,213852
85151,213826
85161,213816
85171,213802
85182,213901
85191,213800
85201,213737
85211,213776
85221,213795
85231,213803
85241,213712
85251,213772
85261,213780
85271,213797
85281,213710
85291,213781
85301,213766
85335,213690
85342,213748
85382,213694
85394,213811
85433,213812
85445,213808
85452,213709
85484,213772
85492,213795
85501,213752
85512,213803
85523,213749
85532,213744
85543,213731
85552,213723
85562,213725
85572,213788
85583,213777
85592,213779
85602,213765
85612,213792
85622,213767
85633,213760
85642,213738
85653,213715
85662,213719
85672,213725
85682,213691
85692,213696
85703,213684
85712,213690
85722,213662
85733,213638
85742,213589
85752,213607
85762,213591
85772,213577
85783,213582
85792,213584
85802,213556
85812,213567
85855,213611
85864,213597
85872,213598
85883,213571
85892,213583
85902,213561
85913,213542
85922,213535
85932,213532
85943,213443
85978,213462
85993,213254
86033,213053
86045,213035
86113,213002
86125,212989
86163,212965
86172,212961
86183,212855
86193,212859
86202,212836
86213,212863
86222,212890
86233,212859
86242,212724
86253,212775
86294,212795
86305,212741
86312,212404
86323,212701
86332,212824
86343,212822
86352,212869
86362,212856
86373,212894
86382,212900
86392,212900
86402,212947
86412,212969
86422,212972
86433,213074
86442,213093
86452,213092
86463,213201
86472,213167
86482,213233
86492,213196
86502,213156
86513,213210
86523,213191
86532,213097
86542,213128
86552,213119
86562,213070
86573,213178
86583,213197
86592,213101
86602,213185
86612,213157
86655,213177
86664,213208
86702,212933
86713,213222
86753,213176
86793,213166
86802,213325
86812,213329
86822,213274
86832,213335
86842,213363
86852,213360
86862,213371
86873,213469
86882,213436
86892,213379
86903,213560
86912,213433
86922,213487
86933,213619
86942,213538
86952,213556
86962,213579
86972,213611
86982,213570
86993,213736
87002,213650
87012,213607
87054,213501
87063,213487
87072,213402
87083,213463
87093,213608
87103,213542
87114,213557
87123,213683
87132,213623
87143,213672
87153,213682
87163,213693
87172,213593
87182,213624
87193,213630
87202,213561
87212,213579
87223,213812
87252,213655
87262,213597
87272,213544
87283,213704
87294,213675
87302,213553
87312,213569
87322,213569
87332,213523
87342,213485
87352,213396
87363,213408
87372,213237
87383,213295
87393,213344
87435,213501
87446,213634
87453,213576
87485,213721
87493,213628
87524,213872
87534,213883
87567,213651
87574,213747
87613,213645
87624,213601
87633,213616
87643,213629
87653,213632
87663,213602
87673,213639
87683,213625
87693,213680
87703,213700
87713,213716
87724,213707
87733,213673
87743,213705
87753,213732
87763,213758
87773,213826
87783,213855
87793,213907
87803,213929
87814,213930
87855,214066
87864,214019
87873,214048
87883,214055
87893,214071
87903,214126
87913,214139
87923,214162
87933,214178
87943,214259
87953,214265
87963,214279
87973,214318
87983,214309
87993,214318
88003,214263
88013,214265
88023,214269
88065,214272
88074,214282
88083,214354
88124,214466
88134,214511
88165,214483
88174,214474
88183,214481
88193,214479
88203,214462
88214,214441
88223,214392
88234,214459
88266,214563
88274,214561
88283,214579
88293,214598
88303,214695
88313,214656
88323,214684
88333,214652
88343,214675
88353,214823
88363,214790
88373,214707
88383,214725
88393,214815
88403,214791
88413,214709
88423,214693
88433,214764
88443,214785
88453,214733
88463,214737
88473,214751
88483,214764
88493,214682
88503,214717
88514,214724
88523,214680
88533,214693
88544,214733
88553,214748
88563,214686
88574,214731
88583,214748
88593,214716
88603,214770
88613,214752
88655,214737
88663,214757
88673,214715
88707,214693
88714,214709
88725,214660
88765,214784
88804,214742
88814,214743
88824,214759
88833,214661
88843,214714
88853,214645
88863,214663
88873,214713
88883,214758
88893,214668
88903,214706
88913,214634
88923,214703
88933,214680
88943,214711
88953,214608
88964,214760
88973,214683
88983,214611
88993,214664
89003,214655
89013,214560
89055,214345
89064,214505
89074,214495
89083,214439
89093,214415
89104,214544
89113,214491
89124,214569
89133,214421
89143,214314
89153,214391
89164,214494
89173,214322
89183,214302
89193,214359
89203,214333
89214,214475
89223,214315
89233,214343
89244,214494
89253,214448
89263,214433
89273,214465
89283,214415
89293,214417
89304,214552
89313,214460
89354,214487
89364,214418
89373,214397
89418,214400
89425,214371
89435,214329
89476,214362
89517,214436
89527,214270
89536,214368
89544,214323
89554,214342
89563,214264
89573,214329
89584,214263
89593,214272
89604,214240
89613,214194
89623,214211
89634,214166
89643,214146
89653,214145
89664,214125
89675,214096
89683,214117
89694,214096
89705,214090
89714,214060
89725,214084
89734,214064
89745,214080
89754,214069
89764,214066
89774,214042
89784,214050
89794,214002
89804,213995
89814,214013
89858,213805
89864,213903
89874,213897
89884,213911
89894,213908
89904,213896
89914,213877
89924,213869
89934,213907
89945,213850
89954,213879
89965,213859
89974,213870
89985,213848
89994,213835
90005,213822
90014,213811
90024,213818
90035,213790
90084,213697
90095,213749
90134,213614
90185,213618
90195,213661
90276,213730
90286,213638
90365,213617
90375,213622
90384,213616
90394,213553
90404,213514
90414,213591
90425,213549
90434,213502
90444,213482
90454,213592
90465,213517
90474,213579
90484,213505
90494,213553
90505,213473
90514,213573
90524,213506
90534,213558
90544,213553
90555,213476
90564,213486
90574,213718
90585,213704
90594,213756
90605,213675
90614,213694
90658,213676
90666,213630
90674,213771
90684,213732
90694,213676
90704,213676
90715,213644
90724,213548
90734,213603
90745,213691
90754,213709
90765,213798
90774,213754
90785,213782
90794,213696
90805,213686
90814,213693
90824,213614
90834,213676
90844,213721
90854,213650
90904,213629
90944,213349
90995,212953
91004,212857
91015,212772
91024,212662
91035,212525
91045,212431
91088,210562
91095,210416
91104,210227
91114,210045
91125,210062
91135,209894
91144,209967
91155,210023
91164,210021
91175,210204
91185,210167
91195,210027
91204,209640
91214,209338
91225,208730
91234,208232
91244,208182
91255,208370
91285,208748
91296,208598
91304,208195
91314,207788
91325,207466
91335,206999
91345,206956
91355,207057
91364,207443
91375,207904
91384,208029
91395,208388
91404,208331
91414,208454
91425,208615
91435,208630
91444,208692
91454,208675
91465,208834
91474,208686
91484,208666
91526,208906
91530,210167
91536,210049
91613,209986
91617,208182
91626,210085
91671,210003
91675,210022
91684,210034
91695,210111
91704,210018
91715,210085
91724,210071
91735,209999
91744,209803
91755,209669
91764,209286
91775,208992
91784,208473
91795,208101
91804,207665
91815,207356
91824,207055
91835,206927
91844,206822
91855,206773
91865,206792
91906,206972
91916,207085
91925,207184
91935,207251
91946,207306
91955,207335
91966,207403
91975,207469
91985,207562
91996,207651
92005,207752
92015,207873
92026,207972
92035,208063
92045,208171
92056,208263
92065,208324
92075,208407
92086,208435
92095,208426
92105,208470
92116,208385
92125,208221
92135,208132
92145,208123
92156,208154
92166,208115
92175,207955
92222,207922
92227,208031
92316,207672
92326,207562
92378,206544
92386,206202
92395,205864
92406,205705
92415,205586
92426,205472
92435,205464
92445,205534
92456,205533
92465,205626
92476,205747
92485,205869
92496,205979
92505,205996
92516,206065
92525,206107
92536,206162
92545,206181
92556,206245
92565,206183
92576,206181
92585,206071
92596,206020
92605,205972
92616,205925
92659,205530
92667,205546
92675,205515
92686,205393
92695,205336
92706,205325
92716,205201
92725,205234
92736,205123
92745,205212
92756,205154
92765,205251
92776,205161
92785,205249
92796,205191
92805,205293
92816,205273
92825,205321
92836,205305
92845,205366
92856,205389
92865,205489
92876,205545
92885,205624
92928,205913
92935,206098
92978,206737
92986,206753
92997,206882
93040,207169
93045,207322
93055,207473
93066,207568
93106,207567
93116,207695
93125,207709
93136,207871
93146,207901
93155,207973
93166,208074
93175,208106
93186,208171
93195,208165
93206,208245
93215,208250
93226,208369
93235,208344
93246,208439
93255,208421
93266,208508
93275,208436
93285,208440
93296,208533
93305,208509
93316,208639
93325,208609
93335,208661
93345,208704
93355,208722
93366,208841
93375,208791
93385,208826
93395,208865
93405,208904
93415,208930
93467,209002
93476,209115
93485,209043
93495,209104
93505,209100
93515,209149
93525,209185
93535,209184
93545,209199
93596,209285
93637,209292
93649,209387
93658,209478
93707,209468
93718,209483
93725,209356
93735,209353
93745,209357
93756,209435
93765,209333
93775,209310
93785,209321
93795,209324
93805,209321
93815,209300
93868,209312
93875,209304
93885,209315
93895,209319
93905,209325
93915,209344
93925,209345
93935,209305
93945,209312
93955,209313
93965,209339
93975,209268
93985,209321
93995,209338
94005,209359
94015,209346
94025,209355
94035,209330
94045,209330
94055,209273
94065,209299
94075,209312
94085,209359
94095,209339
94105,209373
94115,209363
94126,209382
94135,209345
94145,209367
94157,209387
94166,209410
94177,209428
94186,209459
94196,209479
94207,209514
94216,209505
94260,209776
94267,209571
94307,209531
94316,209546
94366,209439
94377,209535
94450,209421
94454,209373
94459,209363
94467,209340
94516,209391
94526,209362
94536,209389
94546,209378
94556,209364
94566,209369
94576,209347
94586,209374
94596,209388
94606,209362
94616,209345
94668,209483
94677,209441
94686,209424
94696,209466
94706,209532
94716,209619
94726,209682
94736,209709
94746,209725
94756,209731
94766,209734
94776,209725
94786,209745
94796,209745
94806,209748
94816,209717
94826,209732
94836,209710
94846,209726
94856,209750
94866,209757
94876,209762
94886,209781
94896,209753
94906,209783
94916,209738
94926,209759
94936,209738
94946,209742
94956,209711
94966,209744
94976,209744
94986,209737
94996,209756
95006,209774
95059,209777
95107,210096
95149,209845
95159,209710
95206,209932
95216,209953
95227,209859
95236,209928
95247,209933
95256,209941
95266,209906
95278,209842
95288,209751
95296,209773
95306,209824
95318,209734
95326,209810
95337,209714
95347,209703
95356,209792
95366,209768
95407,209720
95417,209757
95426,209742
95437,209682
95446,209736
95456,209707
95467,209765
95476,209711
95486,209700
95496,209710
95507,209734
95517,209762
95527,209731
95538,209806
95546,209735
95557,209709
95566,209721
95576,209696
95620,209636
95627,209689
95636,209715
95646,209716
95656,209655
95666,209661
95676,209711
95687,209833
95696,209809
95706,209784
95716,209778
95727,209911
95736,209844
95746,209788
95756,209758
95766,209813
95776,209772
95786,209758
95796,209775
95806,209847
95816,209787
95826,209799
95871,209784
95879,209772
95887,209892
95897,209911
95906,209847
95916,209763
95926,209837
95936,209747
95946,209762
95956,209751
95966,209837
95976,209762
95986,209764
95996,209759
96006,209836
96016,209771
96026,209768
96036,209781
96046,209857
96056,209780
96066,209785
96076,209843
96129,209790
96138,209871
96180,209888
96186,209687
96232,209847
96238,209620
96280,209511
96288,209640
96296,209459
96306,209505
96316,209494
96326,209526
96336,209527
96346,209553
96356,209519
96366,209541
96376,209545
96386,209520
96396,209477
96406,209458
96416,209510
96426,209471
96436,209486
96446,209491
96456,209474
96466,209445
96476,209421
96487,209391
96497,209348
96507,209323
96516,209323
96526,209319
96536,209281
96546,209282
96556,209288
96567,209260
96577,209277
96587,209264
96597,209288
96607,209273
96659,209248
96666,209262
96677,209216
96687,209198
96697,209188
96707,209158
96717,209161
96727,209125
96769,209150
96778,209141
96789,209117
96825,209112
96839,209092
96876,209127
96880,208916
96888,209017
96896,209058
96908,208982
96917,209014
96927,209025
96937,209017
96947,209027
96957,209021
96967,209031
96977,209042
96987,209048
96997,209026
97007,209038
97058,208970
97067,208996
97077,208991
97087,208963
97097,208989
97107,208996
97117,208966
97127,208972
97137,208981
97147,209012
97157,208977
97167,208984
97177,208994
97187,208996
97197,208970
97207,209000
97217,209010
97227,208994
97237,208945
97247,208971
97257,208985
97267,208971
97277,208881
97287,208873
97297,208824
97307,208782
97318,208677
97327,208551
97337,208500
97347,208378
97357,208131
97367,207967
97377,207700
97387,207475
97397,207138
97438,206458
97449,206416
97488,205728
97498,205503
97542,204650
97547,204628
97557,204519
97600,204645
97610,204561
97617,204452
97627,204273
97637,204405
97647,204610
97657,205049
97667,205522
97677,206005
97687,206356
97697,206531
97707,206835
97718,207387
97727,207699
97737,208035
97747,208270
97757,208417
97767,208706
97777,208965
97787,209034
97797,209179
97807,209359
97851,209623
97858,209785
97867,209899
97877,210062
97887,210193
97897,210358
97907,210498
97918,210623
97927,210611
97937,210547
97947,210508
97958,210464
97967,210122
97977,210017
97987,209954
97997,209945
98007,209900
98017,209870
98027,209870
98038,209991
98047,209889
98057,209920
98067,209958
98078,210112
98087,210101
98097,210045
98107,210094
98118,210241
98159,210451
98168,210567
98208,210694
98249,210622
98260,210731
98299,210884
98333,210464
98337,210122
98340,211432
98349,211547
98390,211425
98400,211267
98407,210801
98447,210375
98457,210284
98467,210339
98478,210472
98488,210451
98497,210319
98507,210298
98517,210273
98527,210215
98537,210088
98547,210057
98557,210035
98567,210001
98577,209924
98587,209903
98598,209998
98608,209995
98649,209958
98658,209921
98667,209948
98677,209942
98687,209942
98697,209869
98707,209893
98718,209891
98728,209943
98738,209975
98747,209978
98758,209919
98768,209838
98778,209812
98787,209667
98798,209534
98808,209396
98818,209263
98828,209143
98837,209013
98848,208888
98858,208772
98868,208738
98878,208743
98888,208672
98898,208621
98908,208504
98919,208388
98928,208213
98938,208004
98977,207800
98981,209949
99020,207265
99024,209921
99059,207320
99072,207966
99108,208228
99120,208864
99128,208945
99139,209052
99149,209232
99158,209325
99168,209413
99178,209505
99188,209622
99198,209640
99208,209653
99218,209578
99228,209456
99238,209364
99248,209327
99258,209199
99268,209156
99279,209068
99289,209028
99299,208937
99309,208855
99318,208822
99328,208870
99338,209018
99348,209195
99358,209375
99368,209492
99378,209509
99388,209483
99399,209352
99409,209242
99459,209140
99468,209138
99478,209098
99488,208891
99498,208766
99508,208688
99519,208674
99529,208761
99538,208876
99548,209085
99559,209239
99569,209434
99579,209611
99589,209755
99598,210049
99608,210232
99618,210234
99661,210528
99709,210410
99718,210705
99728,210709
99739,210707
99749,210785
99759,210926
99770,211144
99780,211121
99789,211296
99798,211517
99808,211618
99819,211626
99828,211814
99839,211899
99849,211861
99859,211751
99869,211777
99879,211757
99889,211755
99918,212011
99929,212068
99939,211913
99949,211970
99959,212015
99968,212029
99979,212093
99989,212147
99999,212161
100008,212116
100019,212105
100028,212122
100038,212133
100049,212160
100060,212206
100068,212189
100079,212290
100088,212246
100098,212295
100139,212326
100182,212396
100190,212406
100199,212253
100208,212293
100218,212300
100228,212329
100239,212453
100248,212333
100258,212329
100268,212339
100279,212480
100289,212468
100299,212477
100309,212467
100318,212351
100328,212352
100338,212345
100389,212391
100398,212389
100409,212495
100419,212542
100429,212530
100438,212382
100448,212395
100458,212390
100468,212400
100479,212521
100489,212509
100499,212575
100509,212562
100518,212431
100529,212536
100539,212551
100549,212534
100558,212370
100569,212531
100579,212558
100589,212535
100598,212423
100609,212557
100656,212455
100660,212532
100669,212578
100678,212443
100689,212545
100734,212430
100739,212571
100780,212548
100789,212480
100841,212466
100848,212529
100859,212554
100869,212560
100878,212455
100889,212545
100899,212572
100909,212580
100918,212508
100928,212526
100939,212572
100949,212580
100959,212593
100969,212591
100978,212546
100989,212579
100998,212579
101009,212580
101058,212474
101069,212592
101079,212609
101089,212597
101099,212638
101109,212624
101120,212642
101130,212629
101140,212645
101150,212626
101159,212622
101169,212616
101179,212617
101189,212615
101200,212619
101210,212626
101220,212621
101229,212611
101240,212628
101250,212621
101260,212624
101269,212635
101280,212629
101290,212627
101300,212662
101309,212633
101320,212628
101330,212622
101340,212602
101378,212668
101390,212643
101441,212644
101491,212638
101500,212661
101552,212632
101562,212619
101569,212646
101579,212658
101589,212622
101600,212631
101610,212624
101620,212615
101629,212630
101640,212611
101650,212618
101660,212648
101669,212624
101680,212631
101690,212632
101700,212644
101709,212632
101719,212592
101730,212615
101740,212609
101749,212628
101760,212597
101770,212590
101780,212575
101789,212571
101800,212563
101810,212542
101860,212650
101869,212639
101879,212538
101890,212591
101900,212565
101909,212586
101920,212613
101930,212673
101940,212604
101949,212621
101960,212648
101970,212660
101980,212641
101989,212648
102000,212660
102010,212659
102020,212666
102029,212631
102040,212655
102050,212654
102060,212680
102110,212559
102162,212563
102170,212620
102209,212643
102262,212668
102271,212661
102315,212679
102349,212660
102360,212662
102370,212637
102379,212648
102389,212635
102400,212718
102410,212714
102420,212708
102429,212652
102440,212688
102450,212688
102460,212715
102469,212632
102480,212720
102490,212716
102500,212733
102509,212644
102519,212656
102530,212714
102540,212747
102549,212626
102560,212704
102570,212691
102580,212710
102589,212628
102600,212696
102610,212703
102660,212603
102670,212580
102679,212641
102690,212708
102700,212693
102709,212608
102720,212694
102730,212657
102740,212674
102749,212586
102760,212675
102770,212659
102780,212700
102789,212551
102800,212648
102810,212651
102820,212656
102829,212519
102840,212656
102850,212663
102860,212645
102911,212603
102921,212726
102969,212645
103014,212537
103020,212668
103063,212568
103074,212640
103079,212614
103090,212672
103100,212669
103111,212680
103121,212678
103131,212681
103141,212701
103151,212680
103160,212684
103171,212687
103181,212708
103191,212699
103200,212681
103211,212697
103221,212690
103231,212710
103240,212695
103250,212699
103261,212689
103271,212698
103280,212677
103291,212711
103301,212709
103311,212720
103320,212676
103330,212704
103341,212710
103351,212677
103360,212686
103371,212700
103381,212700
103391,212702
103400,212700
103411,212708
103462,212735
103472,212740
103480,212686
103491,212713
103501,212703
103511,212687
103562,212732
103571,212768
103655,212743
103659,212720
103666,212676
103670,212714
103680,212659
103691,212679
103701,212672
103711,212662
103720,212618
103731,212673
103741,212639
103751,212652
103761,212634
103771,212604
103781,212618
103791,212590
103800,212641
103811,212585
103861,212691
103871,212714
103880,212660
103891,212689
103901,212690
103911,212718
103920,212719
103931,212691
103941,212709
103951,212635
103960,212730
103971,212723
103981,212718
103991,212727
104000,212744
104011,212698
104021,212725
104031,212729
104040,212731
104050,212735
104060,212735
104070,212749
104081,212736
104091,212746
104101,212765
104111,212746
104120,212759
104130,212742
104140,212736
104150,212711
104160,212679
104213,212700
104221,212721
104264,212678
104271,212687
104280,212699
104290,212709
104300,212725
104310,212652
104320,212642
104330,212699
104340,212649
104350,212654
104361,212755
104371,212743
104381,212767
104391,212767
104400,212663
104411,212758
104420,212659
104452,212634
104461,212779
104471,212756
104481,212776
104491,212797
104500,212732
104510,212668
104521,212781
104531,212778
104540,212654
104551,212728
104560,212659
104570,212656
104580,212699
104591,212617
104600,212696
104610,212645
104621,212670
104632,212783
104675,212654
104680,212732
104735,212745
104782,212745
104792,212712
104800,212657
104810,212654
104820,212647
104830,212679
104840,212666
104850,212710
104860,212716
104870,212765
104880,212679
104890,212704
104900,212717
104910,212734
104920,212757
104930,212742
104940,212768
104950,212762
104961,212741
104972,212756
104982,212761
104992,212748
105001,212764
105012,212768
105053,212764
105061,212673
105071,212785
105081,212750
105092,212771
105102,212768
105112,212755
105121,212748
105132,212781
105142,212768
105152,212764
105161,212739
105172,212735
105182,212746
105192,212747
105201,212753
105212,212738
105222,212755
105232,212752
105241,212759
105251,212772
105261,212760
105271,212761
105282,212756
105333,212785
105343,212789
105351,212789
105392,212683
105403,212743
105443,212635
105451,212649
105495,212649
105498,212764
105501,212750
105511,212727
105522,212740
105531,212744
105541,212672
105551,212655
105561,212687
105571,212677
105581,212674
105591,212699
105601,212637
105611,212680
105621,212690
105631,212719
105641,212667
105651,212722
105661,212711
105671,212751
105681,212713
105691,212751
105701,212683
105711,212778
105721,212704
105731,212767
105741,212733
105751,212792
105761,212747
105771,212775
105781,212752
105791,212774
105801,212755
105811,212770
105852,212751
105863,212719
105872,212791
105881,212805
105891,212792
105901,212779
105911,212791
105921,212745
105931,212765
105941,212791
105951,212780
105961,212756
105971,212767
105981,212778
105991,212756
106001,212754
106011,212752
106064,212746
106072,212731
106112,212713
106122,212670
106133,212777
106222,212727
106231,212719
106309,212756
106316,212792
106322,212726
106332,212770
106341,212723
106351,212725
106361,212721
106371,212736
106381,212749
106391,212754
106401,212733
106411,212740
106422,212838
106431,212714
106441,212707
106452,212817
106461,212698
106471,212709
106481,212712
106491,212693
106502,212815
106511,212676
106522,212829
106531,212660
106542,212819
106551,212676
106561,212671
106572,212801
106581,212688
106591,212685
106601,212667
106612,212800
106663,212838
106672,212831
106681,212635
106692,212784
106701,212653
106711,212669
106721,212670
106732,212792
106741,212704
106751,212722
106761,212697
106772,212800
106781,212729
106791,212740
106801,212733
106812,212812
106821,212785
106868,212777
106872,212821
106914,212784
106918,212801
106924,212863
106966,212770
107011,212798
107055,212822
107059,212784
107064,212745
107073,212834
107081,212811
107092,212843
107102,212838
107112,212829
107122,212836
107132,212810
107142,212818
107152,212770
107162,212805
107172,212774
107182,212784
107192,212760
107202,212791
107212,212777
107222,212789
107232,212797
107242,212782
107252,212792
107262,212789
107272,212786
107282,212776
107292,212772
107302,212792
107312,212807
107322,212798
107332,212802
107342,212801
107352,212784
107362,212822
107372,212778
107382,212801
107392,212786
107402,212802
107412,212808
107463,212516
107472,212720
107482,212823
107492,212813
107502,212817
107512,212839
107553,212776
107596,212741
107602,212821
107646,212798
107652,212841
107662,212849
107673,212802
107682,212742
107693,212781
107702,212743
107713,212761
107723,212778
107732,212780
107743,212754
107752,212828
107762,212780
107773,212770
107782,212809
107793,212778
107803,212775
107812,212831
107857,212814
107863,212849
107872,212889
107882,212866
107892,212862
107903,212841
107912,212827
107922,212877
107933,212866
107942,212858
107953,212859
107962,212864
107973,212878
107982,212833
107993,212865
108002,212879
108013,212888
108022,212878
108033,212882
108042,212876
108053,212870
108062,212819
108073,212887
108082,212903
108093,212898
108102,212862
108112,212849
108123,212875
108132,212858
108143,212871
108193,212851
108235,212849
108275,212820
108284,212784
108293,212746
108304,212821
108343,212740
108353,212702
108362,212725
108372,212727
108382,212727
108392,212716
108403,212865
108413,212831
108424,212816
108432,212721
108442,212732
108452,212739
108462,212713
108472,212740
108482,212716
108492,212738
108503,212714
108512,212700
108543,212844
108552,212716
108562,212696
108572,212719
108583,212863
108592,212727
108603,212870
108613,212850
108623,212856
108632,212766
108642,212737
108652,212699
108663,212878
108673,212697
108682,212693
108692,212698
108702,212705
108713,212731
108755,212708
108759,212663
108764,212810
108774,212788
108783,212854
108792,212712
108802,212745
108813,212794
108822,212678
108832,212746
108842,212686
108852,212775
108863,212813
108872,212792
108882,212753
108892,212799
108903,212805
108913,212804
108922,212782
108932,212802
108943,212822
108953,212814
108963,212811
108972,212827
108983,212809
108993,212832
109003,212829
109012,212814
109059,212933
109064,212842
109073,212798
109084,212842
109093,212839
109104,212837
109113,212852
109123,212825
109134,212839
109143,212836
109153,212816
109163,212810
109174,212826
109183,212807
109193,212824
109203,212786
109214,212788
109223,212759
109266,212796
109316,212808
109324,212849
109333,212795
109374,212807
109383,212795
109392,212752
109403,212771
109414,212778
109423,212754
109433,212841
109476,212790
109483,212820
109493,212800
109504,212815
109513,212807
109523,212813
109534,212791
109543,212794
109553,212803
109563,212812
109574,212810
109583,212802
109593,212809
109603,212781
109614,212816
109623,212763
109633,212751
109644,212802
109653,212771
109664,212787
109673,212738
109683,212722
109694,212775
109703,212753
109714,212781
109724,212792
109733,212779
109744,212755
109753,212807
109763,212805
109773,212807
109784,212724
109793,212801
109803,212803
109814,212763
109857,212783
109864,212806
109874,212804
109883,212783
109927,212820
109934,212804
109977,212862
109985,212811
110027,212743
110067,212721
110075,212746
110084,212800
110127,212745
110133,212779
110143,212820
110153,212801
110163,212813
110173,212813
110184,212871
110193,212828
110203,212820
110213,212807
110224,212851
110276,212847
110283,212706
110293,212799
110303,212719
110314,212874
110323,212792
110334,212870
110343,212786
110353,212809
110363,212802
110373,212801
110384,212866
110393,212806
110403,212800
110413,212806
110424,212898
110433,212809
110443,212820
110453,212772
110464,212870
110473,212789
110483,212778
110493,212777
110504,212874
110513,212747
110523,212795
110533,212787
110544,212870
110553,212745
110563,212748
110573,212784
110584,212879
110593,212720
110603,212685
110613,212745
110657,212764
110664,212721
110715,212806
110725,212877
110765,212717
110813,212735
110823,212744
110833,212770
110843,212774
110853,212812
110863,212782
110874,212781
110884,212806
110893,212814
110904,212804
110913,212797
110924,212785
110933,212787
110944,212789
110955,212775
110964,212785
110975,212773
110984,212757
110995,212772
111004,212759
111015,212775
111057,212656
111063,212758
111074,212780
111084,212765
111095,212767
111104,212750
111114,212783
111125,212750
111134,212729
111144,212764
111155,212758
111164,212753
111174,212759
111185,212757
111194,212741
111204,212744
111214,212745
111225,212728
111234,212756
111244,212721
111254,212718
111264,212726
111274,212729
111284,212710
111294,212736
111305,212713
111347,212758
111356,212848
111366,212707
111408,212765
111456,212739
111506,212738
111515,212739
111524,212747
111534,212745
111545,212715
111554,212751
111564,212731
111575,212701
111584,212639
111594,212664
111604,212666
111614,212660
111625,212681
111634,212740
111644,212698
111654,212651
111665,212655
111674,212739
111684,212741
111694,212666
111705,212659
111714,212756
111725,212680
111734,212741
111745,212685
111754,212727
111764,212751
111774,212729
111785,212714
111794,212744
111804,212770
111814,212724
111864,212694
111875,212748
111885,212627
111894,212795
111904,212780
111914,212732
111924,212787
111934,212736
111945,212790
111954,212725
111964,212775
111974,212745
111985,212772
111994,212696
112004,212721
112014,212729
112055,212694
112065,212708
112117,212699
112125,212690
112166,212715
112176,212645
112185,212795
112194,212614
112204,212632
112215,212766
112224,212716
112234,212689
112244,212700
112254,212678
112305,212650
112317,212767
112324,212655
112334,212710
112344,212677
112354,212604
112365,212773
112374,212681
112384,212643
112394,212626
112404,212678
112414,212683
112424,212591
112435,212780
112444,212687
112454,212641
112465,212780
112474,212647
112484,212643
112494,212708
112504,212579
112515,212757
112524,212610
112534,212618
112545,212770
112554,212620
112564,212624
112574,212641
112584,212635
112594,212626
112604,212642
112614,212642
112667,212763
112675,212725
112726,212664
112736,212748
112781,212641
112785,212409
112795,212789
112805,212756
112815,212744
112825,212784
112835,212763
112844,212667
112854,212654
112865,212779
112875,212759
112885,212774
112894,212710
112905,212772
112915,212769
112925,212721
112934,212734
112975,212754
112984,212711
112995,212742
113004,212742
113014,212734
113026,212733
113034,212736
113045,212724
113055,212726
113065,212708
113075,212679
113086,212709
113096,212725
113106,212725
113115,212722
113125,212762
113168,212664
113177,212771
113227,212719
113236,212683
113245,212639
113255,212720
113265,212713
113276,212702
113285,212674
113296,212722
113305,212692
113316,212721
113325,212710
113335,212729
113346,212697
113355,212718
113365,212696
113375,212721
113386,212709
113395,212701
113405,212703
113415,212703
113425,212731
113435,212717
113445,212713
113490,212719
113495,212591
113505,212776
113515,212715
113525,212676
113535,212719
113546,212661
113555,212625
113565,212603
113575,212713
113586,212653
113595,212651
113605,212644
113615,212676
113625,212589
113635,212711
113645,212649
113655,212605
113665,212682
113675,212586
113685,212713
113695,212620
113705,212691
113715,212600
113725,212695
113735,212716
113745,212634
113786,212699
113797,212705
113805,212704
113846,212718
113858,212690
113936,212691
113945,212699
113997,212700
114006,212356
114048,212683
114055,212683
114065,212656
114075,212698
114085,212725
114096,212716
114105,212713
114116,212754
114125,212680
114135,212723
114145,212695
114155,212644
114165,212732
114175,212695
114185,212631
114195,212678
114205,212698
114215,212680
114259,212550
114266,212720
114277,212635
114286,212744
114295,212639
114306,212749
114315,212678
114325,212673
114335,212631
114346,212761
114355,212693
114365,212696
114375,212715
114385,212661
114395,212616
114405,212689
114415,212692
114425,212650
114435,212659
114445,212665
114455,212665
114465,212610
114475,212701
114485,212659
114495,212685
114505,212623
114515,212658
114525,212694
114535,212615
114546,212768
114588,212653
114597,212708
114608,212643
114677,212670
114682,212631
114688,212696
114698,212680
114738,212655
114746,212618
114788,212667
114795,212601
114805,212577
114815,212644
114826,212684
114835,212623
114845,212644
114855,212615
114865,212671
114876,212671
114885,212668
114896,212676
114905,212670
114916,212660
114925,212691
114937,212683
114946,212692
114955,212690
114966,212697
114976,212703
114986,212691
114997,212663
115006,212692
115016,212671
115061,212644
115067,212664
115077,212675
115086,212651
115096,212678
115107,212681
115116,212629
115126,212682
115136,212676
115147,212675
115156,212676
115166,212678
115177,212645
115186,212658
115196,212679
115206,212666
115216,212694
115226,212693
115237,212662
115246,212676
115256,212676
115266,212685
115277,212639
115286,212670
115329,212653
115336,212756
115377,212695
115417,212711
115427,212777
115467,212708
115470,212581
115477,212721
115489,212689
115496,212627
115506,212729
115516,212703
115526,212740
115537,212714
115546,212675
115556,212670
115566,212644
115576,212649
115586,212663
115596,212665
115606,212666
115616,212664
115626,212723
115637,212665
115646,212656
115656,212733
115667,212684
115676,212624
115686,212730
115697,212672
115706,212728
115716,212632
115727,212678
115737,212669
115746,212724
115756,212588
115766,212712
115776,212684
115787,212662
115796,212630
115806,212718
115817,212713
115857,212568
115867,212701
115876,212709
115886,212720
115897,212741
115906,212721
115916,212683
115926,212738
115967,212707
116007,212703
116017,212709
116068,212714
116077,212602
116086,212674
116097,212769
116106,212745
116116,212671
116126,212659
116137,212751
116146,212727
116156,212661
116166,212707
116176,212665
116187,212759
116196,212701
116206,212661
116217,212752
116258,212714
116266,212739
116276,212760
116286,212647
116297,212761
116306,212701
116316,212644
116327,212784
116336,212723
116346,212669
116357,212773
116366,212723
116376,212656
116387,212756
116396,212694
116406,212640
116417,212806
116426,212729
116436,212641
116447,212786
116456,212721
116466,212657
116477,212793
116486,212701
116496,212622
116507,212795
116516,212630
116527,212775
116536,212684
116546,212656
116557,212804
116567,212812
116607,212663
116618,212690
116660,212599
116667,212721
116703,212698
116705,212723
116709,212684
116718,212603
116728,212748
116779,212563
116788,212592
116797,212671
116806,212567
116816,212607
116827,212672
116837,212694
116846,212656
116857,212709
116866,212610
116876,212641
116887,212680
116896,212620
116906,212664
116917,212683
116926,212633
116936,212695
116947,212673
116956,212704
116967,212682
116976,212661
116987,212685
116996,212682
117007,212672
117018,212692
117057,212702
117068,212686
117078,212680
117086,212577
117098,212685
117107,212676
117118,212689
117127,212688
117138,212676
117147,212685
117157,212684
117167,212703
117178,212680
117187,212647
117197,212683
117208,212672
117217,212656
117227,212685
117238,212652
117247,212672
117257,212663
117267,212665
117278,212657
117287,212637
117330,212680
117337,212671
117348,212702
117357,212719
117367,212728
117377,212729
117387,212817
117398,212711
117408,212744
117418,212709
117428,212702
117437,212659
117447,212723
117457,212738
117467,212705
117498,212720
117507,212643
117518,212690
117527,212689
117537,212697
117548,212660
117558,212688
117568,212694
117577,212690
117587,212710
117597,212694
117608,212698
117617,212697
117626,212724
117638,212695
117648,212640
117657,212614
117699,212679
117706,212694
117749,212691
117753,212744
117760,212680
117771,212621
117811,212671
117817,212711
117870,212576
117878,212695
117919,212684
117929,212778
117979,212780
117990,212750
117997,212809
118007,212832
118017,212770
118028,212838
118038,212821
118047,212806
118057,212727
118068,212824
118077,212787
118088,212838
118097,212796
118108,212845
118117,212825
118129,212824
118137,212848
118148,212849
118158,212843
118167,212807
118178,212825
118187,212795
118198,212846
118207,212783
118218,212850
118227,212779
118278,212804
118289,212781
118297,212756
118307,212804
118318,212837
118327,212797
118338,212861
118347,212820
118358,212888
118367,212824
118378,212877
118387,212832
118397,212744
118408,212898
118417,212832
118428,212918
118480,212715
118488,212802
118529,212779
118569,212706
118574,212779
118578,212784
118587,212712
118598,212786
118607,212705
118618,212810
118627,212714
118638,212717
118679,212851
118688,212792
118698,212701
118707,212673
118717,212702
118727,212656
118738,212798
118747,212667
118758,212796
118767,212681
118778,212802
118787,212697
118798,212808
118807,212716
118818,212797
118827,212738
118838,212808
118847,212724
118858,212802
118867,212754
118878,212799
118887,212766
118898,212784
118907,212777
118917,212794
118928,212800
118937,212789
118948,212798
118958,212797
118969,212824
118978,212782
118988,212808
118998,212799
119008,212798
119050,212656
119058,212498
119069,212831
119078,212821
119119,212813
119128,212783
119173,212823
119178,212704
119220,212794
119228,212794
119238,212792
119249,212787
119258,212792
119269,212781
119278,212801
119289,212769
119298,212784
119309,212802
119318,212772
119329,212794
119338,212765
119349,212799
119358,212787
119369,212822
119378,212788
119389,212792
119398,212799
119409,212799
119459,212806
119468,212853
119510,212842
119518,212780
119529,212785
119538,212751
119549,212765
119558,212734
119569,212764
119578,212724
119589,212774
119598,212714
119609,212745
119618,212715
119629,212723
119638,212745
119649,212731
119658,212680
119669,212716
119678,212698
119689,212692
119698,212740
119708,212685
119718,212692
119770,212835
119778,212792
119820,212845
119829,212728
119869,212804
119920,212799
119928,212782
119939,212826
119948,212826
119959,212809
119968,212837
119979,212826
119988,212835
119999,212845
120008,212824
120019,212831
120028,212834
120038,212784
120049,212845
120058,212815
120069,212858
120078,212815
120089,212864
120098,212824
120109,212829
120118,212803
120129,212847
120138,212807
120149,212854
120158,212815
120169,212844
120178,212809
120189,212854
120198,212778
120209,212843
120259,212846
120268,212750
120279,212841
120288,212794
120298,212786
120309,212839
120318,212799
120329,212857
120338,212798
120349,212866
120358,212810
120369,212886
120378,212800
120389,212876
120398,212809
120409,212880
120418,212818
120428,212791
120470,212786
120480,212861
120522,212618
120530,212694
120538,212701
120581,212846
120589,212698
120599,212805
120608,212647
120618,212659
120628,212671
120640,212821
120648,212702
120659,212831
120669,212834
120678,212676
120689,212737
120698,212664
120709,212861
120719,212829
120729,212829
120739,212782
120769,212898
120778,212686
120788,212651
120799,212835
120809,212696
120818,212666
120828,212667
120838,212691
120848,212660
120859,212753
120868,212748
120879,212779
120889,212766
120899,212775
120909,212812
120919,212693
120928,212778
120970,212635
120978,212797
120989,212763
121000,212793
121009,212789
121018,212818
121029,212802
121040,212787
121049,212792
121060,212791
121069,212778
121079,212789
121090,212797
121099,212794
121109,212802
121119,212802
121160,212851
121169,212817
121180,212796
121189,212774
121200,212796
121209,212781
121220,212794
121229,212792
121240,212798
121249,212798
121260,212778
121269,212793
121280,212789
121289,212821
121300,212804
121309,212798
121319,212805
121330,212791
121339,212811
121349,212809
121360,212792
121369,212778
121380,212804
121389,212778
121400,212792
121409,212776
121485,212751
121500,212806
121510,212860
121518,212836
121561,212790
121570,212784
121610,212774
121652,212798
121659,212779
121703,212848
121710,212714
121719,212702
121729,212760
121739,212775
121749,212740
121759,212746
121769,212745
121779,212774
121789,212773
121799,212785
121809,212784
121852,212750
121859,212779
121869,212817
121879,212809
121889,212820
121899,212815
121909,212823
121919,212823
121929,212834
121939,212811
121949,212814
121959,212800
121969,212808
121979,212812
121989,212830
121999,212822
122009,212826
122019,212823
122029,212825
122039,212829
122049,212830
122059,212834
122069,212843
122079,212832
122089,212832
122099,212837
122109,212843
122119,212806
122129,212796
122139,212818
122149,212821
122159,212825
122169,212818
122179,212791
122189,212814
122199,212801
122252,212844
122292,212838
122300,212819
122343,212735
122384,212645
122389,212716
122399,212792
122409,212783
122419,212777
122429,212774
122440,212846
122449,212775
122459,212779
122469,212768
122479,212769
122489,212792
122499,212780
122509,212797
122520,212828
122529,212775
122539,212748
122549,212762
122559,212756
122570,212809
122579,212714
122589,212726
122599,212699
122609,212684
122652,212740
122659,212642
122669,212685
122679,212718
122689,212722
122699,212732
122709,212683
122719,212711
122729,212689
122739,212719
122749,212703
122759,212696
122769,212711
122779,212723
122789,212705
122799,212687
122809,212668
122819,212691
122829,212669
122839,212673
122849,212676
122859,212690
122869,212595
122879,212658
122922,212699
122929,212765
122941,212730
122980,212680
123021,212748
123031,212811
123070,212737
123113,212677
123120,212644
123130,212729
123140,212733
123150,212729
123160,212732
123170,212733
123180,212716
123190,212753
123200,212700
123210,212720
123220,212723
123230,212729
123240,212725
123250,212689
123260,212700
123270,212750
123280,212705
123290,212708
123300,212722
123310,212756
123320,212749
123330,212726
123340,212733
123350,212745
123360,212749
123370,212736
123380,212732
123390,212768
123400,212737
123411,212745
123453,212714
123460,212747
123470,212762
123480,212752
123490,212734
123500,212740
123510,212763
123520,212743
123530,212743
123540,212772
123550,212766
123560,212761
123570,212750
123580,212755
123590,212774
123600,212761
123610,212763
123650,212823
123692,212783
123701,212769
123743,212753
123751,212781
123760,212715
123770,212761
123780,212751
123790,212783
123800,212777
123810,212786
123820,212817
123830,212786
123840,212779
123851,212772
123892,212795
123900,212800
123910,212804
123920,212833
123930,212816
123940,212851
123950,212819
123960,212838
123970,212839
123980,212851
123990,212808
124000,212840
124010,212852
124020,212856
124030,212830
124040,212826
124050,212869
124060,212856
124070,212863
124080,212843
124090,212836
124100,212821
124110,212882
124120,212812
124130,212818
124140,212841
124150,212886
124160,212841
124170,212825
124180,212820
124190,212886
124200,212859
124210,212799
124251,212855
124332,212749
124335,212808
124341,212458
124352,212735
124391,212801
124403,212844
124412,212786
124420,212723
124430,212790
124440,212752
124450,212740
124460,212755
124470,212788
124480,212768
124490,212713
124500,212720
124510,212815
124521,212872
124530,212778
124540,212692
124550,212804
124560,212785
124570,212704
124580,212759
124590,212739
124600,212784
124610,212706
124652,212715
124660,212696
124670,212707
124680,212720
124690,212707
124700,212720
124710,212714
124720,212720
124730,212666
124740,212705
124750,212697
124760,212733
124770,212700
124780,212726
124790,212717
124800,212721
124810,212647
124820,212663
124830,212654
124840,212676
124850,212680
124860,212702
124870,212673
124880,212724
124890,212705
124900,212734
124910,212696
124961,212826
124971,212799
124980,212688
124990,212713
125001,212821
125011,212778
125020,212689
125031,212772
125041,212786
125051,212791
125061,212787
125071,212745
125081,212821
125090,212823
125100,212772
125111,212799
125120,212794
125152,212654
125161,212831
125171,212782
125181,212823
125191,212793
125201,212837
125210,212816
125221,212823
125231,212841
125240,212802
125250,212806
125262,212779
125271,212776
125283,212797
125291,212726
125301,212718
125312,212758
125322,212748
125331,212799
125341,212735
125381,212743
125425,212610
125433,212718
125483,212737
125524,212739
125530,212623
125543,212779
125612,212725
125621,212696
125632,212701
125641,212694
125651,212697
125662,212696
125672,212683
125681,212683
125691,212699
125701,212693
125711,212711
125721,212706
125731,212709
125741,212719
125751,212701
125761,212634
125771,212701
125781,212721
125791,212705
125801,212602
125811,212688
125822,212705
125863,212600
125872,212637
125881,212595
125891,212696
125901,212691
125911,212702
125921,212648
125931,212704
125941,212704
125951,212711
125961,212650
125971,212711
125981,212702
125991,212714
126001,212695
126011,212716
126021,212702
126031,212704
126041,212705
126051,212701
126061,212730
126071,212697
126081,212721
126091,212709
126101,212725
126111,212696
126156,212631
126163,212615
126205,212595
126251,212741
126292,212725
126301,212650
126312,212740
126322,212727
126331,212684
126341,212642
126351,212635
126361,212662
126371,212618
126381,212626
126391,212615
126401,212677
126411,212584
126421,212579
126431,212588
126442,212720
126452,212737
126462,212733
126472,212739
126481,212604
126491,212595
126501,212604
126511,212601
126521,212657
126531,212591
126541,212604
126551,212580
126562,212717
126572,212739
126582,212748
126592,212735
126601,212576
126611,212597
126654,212684
126661,212591
126672,212721
126681,212597
126691,212581
126701,212586
126711,212608
126722,212708
126732,212770
126742,212729
126752,212737
126796,212649
126801,212675
126847,212663
126852,212566
126896,212642
126902,212660
126912,212647
126921,212544
126931,212533
126941,212560
126951,212558
126961,212582
126971,212558
126981,212574
126991,212598
127002,212634
127012,212646
127052,212599
127061,212542
127071,212637
127081,212646
127091,212638
127101,212640
127111,212660
127122,212626
127132,212650
127142,212642
127152,212636
127161,212662
127171,212662
127181,212664
127191,212650
127202,212644
127212,212638
127222,212649
127232,212644
127242,212660
127252,212629
127262,212644
127272,212657
127282,212658
127292,212649
127302,212649
127312,212636
127323,212656
127332,212673
127342,212648
127352,212668
127362,212652
127372,212642
127382,212649
127392,212636
127402,212641
127444,212648
127453,212581
127493,212638
127503,212696
127544,212612
127554,212643
127597,212518
127605,212637
127612,212629
127623,212620
127633,212613
127642,212638
127652,212643
127662,212648
127672,212662
127683,212612
127693,212629
127703,212615
127713,212606
127722,212639
127732,212653
127742,212648
127752,212644
127763,212637
127773,212630
127783,212637
127792,212573
127803,212626
127813,212641
127863,212642
127873,212579
127882,212634
127892,212626
127902,212652
127912,212634
127922,212566
127932,212622
127942,212610
127952,212598
127963,212557
127972,212592
127982,212580
127992,212578
128003,212584
128013,212506
128023,212530
128033,212544
128042,212570
128052,212582
128062,212567
128072,212569
128083,212592
128093,212570
128103,212594
128145,212605
128156,212490
128164,212551
128213,212555
128225,212581
128273,212548
128284,212535
128334,212610
128343,212580
128352,212495
128363,212587
128373,212584
128383,212590
128392,212573
128403,212589
128413,212607
128423,212592
128433,212597
128442,212482
128452,212467
128462,212448
128472,212447
128483,212580
128493,212613
128503,212583
128513,212587
128522,212519
128532,212454
128542,212451
128552,212446
128563,212572
128573,212586
128583,212581
128593,212585
128602,212453
128612,212451
128663,212472
128672,212490
128682,212456
128692,212438
128702,212447
128712,212430
128723,212583
128732,212440
128742,212450
128752,212442
128763,212591
128773,212571
128783,212557
128793,212557
128802,212468
128812,212426
128822,212427
128833,212554
128884,212455
128894,212550
128937,212468
128945,212512
128953,212411
128993,212404
129037,212359
129044,212494
129053,212345
129129,212557
129135,212480
129142,212497
129153,212503
129162,212505
129172,212441
129182,212498
129192,212502
129202,212512
129213,212485
129222,212481
129234,212513
129243,212500
129253,212492
129263,212489
129274,212499
129284,212491
129294,212492
129324,212532
129333,212567
129343,212511
129352,212516
129364,212502
129372,212509
129384,212487
129393,212496
129403,212493
129413,212472
129423,212476
129433,212489
129443,212527
129454,212473
129463,212436
129474,212457
129484,212455
129493,212536
129503,212427
129513,212427
129523,212453
129533,212453
129543,212459
129553,212461
129564,212434
129574,212442
129584,212438
129594,212436
129603,212461
129653,212499
129664,212429
129674,212440
129683,212459
129693,212478
129703,212450
129713,212473
129723,212440
129733,212464
129743,212469
129753,212461
129763,212460
129773,212471
129783,212481
129793,212489
129804,212414
129814,212444
129824,212434
129834,212420
129843,212470
129853,212492
129898,212414
129904,212491
129914,212417
129923,212484
129933,212485
129943,212471
129953,212496
129964,212431
129974,212457
129984,212456
129994,212452
130043,212520
130054,212530
130063,212507
130106,212586
130146,212542
130156,212525
130163,212536
130174,212553
130184,212546
130194,212553
130203,212531
130214,212563
130224,212551
130234,212562
130243,212524
130288,212463
130294,212495
130303,212529
130314,212597
130323,212497
130334,212557
130344,212570
130354,212588
130363,212508
130374,212572
130384,212572
130394,212576
130403,212509
130414,212575
130424,212588
130434,212596
130443,212514
130454,212599
130464,212595
130474,212577
130483,212533
130494,212585
130504,212591
130514,212593
130523,212527
130533,212528
130544,212573
130554,212585
130564,212584
130574,212572
130584,212549
130594,212599
130603,212455
130614,212579
130655,212463
130664,212505
130709,212357
130716,212493
130726,212543
130767,212482
130775,212488
130815,212535
130826,212404
130833,212369
130844,212469
130854,212485
130864,212482
130874,212490
130883,212394
130893,212384
130904,212482
130914,212467
130923,212350
130934,212461
130944,212477
130954,212479
130963,212390
130974,212482
130984,212482
130994,212473
131003,212424
131014,212494
131058,212457
131065,212504
131073,212491
131083,212470
131094,212476
131104,212477
131114,212455
131125,212469
131135,212458
131145,212465
131155,212472
131164,212454
131174,212461
131184,212468
131194,212475
131205,212480
131215,212483
131225,212480
131235,212482
131244,212472
131255,212481
131265,212486
131275,212473
131284,212460
131295,212481
131305,212472
131315,212485
131324,212442
131369,212492
131375,212507
131416,212386
131453,212495
131467,212471
131510,212474
131516,212485
131557,212447
131563,212381
131574,212467
131585,212420
131594,212415
131605,212404
131615,212419
131625,212410
131635,212424
131644,212401
131655,212445
131665,212422
131675,212425
131684,212374
131695,212428
131705,212435
131715,212397
131724,212353
131735,212383
131745,212377
131755,212370
131765,212355
131775,212348
131785,212382
131795,212366
131804,212422
131815,212352
131864,212427
131874,212420
131885,212368
131895,212402
131905,212443
131915,212410
131925,212460
131935,212443
131945,212450
131955,212449
131964,212459
131974,212436
131985,212472
131995,212481
132004,212469
132015,212467
132025,212460
132035,212460
132044,212475
132055,212464
132065,212472
132106,212494
132115,212450
132159,212359
132165,212437
132175,212416
132216,212418
132225,212437
132267,212493
132277,212382
132284,212386
132294,212447
132305,212506
132315,212497
132325,212503
132335,212508
132345,212515
132355,212533
132364,212445
132374,212442
132384,212427
132394,212451
132405,212514
132415,212496
132424,212458
132434,212459
132444,212461
132454,212444
132464,212439
132474,212444
132484,212434
132494,212416
132504,212427
132514,212431
132524,212367
132534,212427
132544,212400
132554,212382
132564,212358
132574,212364
132584,212381
132594,212362
132604,212398
132614,212359
132657,212343
132666,212393
132674,212321
132684,212340
132694,212357
132704,212328
132714,212315
132724,212326
132734,212333
132744,212347
132754,212311
132764,212342
132774,212346
132824,212392
132866,212435
132874,212335
132916,212404
132925,212500
132967,212509
132976,212479
133020,212307
133026,212474
133067,212450
133075,212478
133086,212455
133096,212433
133106,212452
133116,212450
133125,212464
133136,212460
133146,212454
133156,212449
133165,212427
133176,212468
133186,212452
133196,212464
133205,212438
133216,212435
133226,212444
133236,212456
133245,212442
133256,212445
133266,212449
133276,212452
133285,212448
133296,212433
133306,212442
133316,212468
133325,212419
133335,212435
133346,212467
133356,212470
133365,212443
133376,212453
133386,212428
133396,212422
133405,212447
133416,212426
133458,212404
133465,212426
133475,212471
133485,212474
133495,212454
133506,212458
133516,212482
133525,212441
133535,212451
133546,212454
133555,212465
133565,212489
133575,212388
133585,212471
133594,212508
133606,212454
133616,212467
133656,212476
133666,212408
133676,212460
133686,212510
133695,212445
133705,212466
133716,212389
133725,212485
133735,212475
133746,212460
133755,212542
133765,212468
133775,212483
133786,212445
133795,212569
133807,212366
133850,212397
133856,212489
133900,212398
133936,212470
133940,212508
133946,212499
133996,212490
134006,212429
134015,212486
134025,212513
134035,212513
134045,212525
134055,212517
134065,212519
134075,212514
134085,212520
134095,212511
134105,212513
134115,212529
134125,212496
134135,212520
134145,212479
134155,212466
134165,212395
134175,212468
134185,212454
134195,212448
134205,212453
134215,212446
134255,212430
134265,212349
134275,212370
134285,212437
134295,212438
134305,212428
134315,212420
134325,212431
134335,212429
134345,212451
134355,212445
134365,212446
134375,212446
134385,212438
134395,212427
134405,212440
134415,212432
134425,212443
134435,212408
134445,212429
134455,212429
134496,212256
134547,212557
134597,212362
134605,212373
134615,212311
134625,212324
134635,212329
134645,212348
134696,212452
134706,212388
134715,212395
134725,212435
134736,212447
134745,212413
134755,212428
134765,212442
134776,212459
134785,212430
134796,212448
134805,212453
134816,212452
134825,212458
134835,212454
134845,212469
134855,212454
134866,212429
134876,212465
134886,212457
134896,212470
134906,212452
134916,212459
134926,212464
134936,212465
134946,212447
134956,212452
134966,212470
134976,212452
134986,212455
134996,212456
135006,212482
135016,212457
135059,212391
135066,212453
135076,212445
135086,212430
135096,212436
135139,212402
135142,212448
135147,212468
135157,212385
135209,212409
135217,212440
135260,212354
135267,212466
135276,212411
135286,212380
135296,212386
135306,212398
135316,212412
135326,212406
135336,212391
135346,212412
135356,212410
135366,212437
135376,212412
135386,212417
135396,212421
135406,212403
135416,212411
135466,212264
135477,212445
135486,212420
135496,212423
135506,212439
135516,212421
135526,212427
135536,212433
135546,212420
135556,212420
135566,212391
135576,212408
135586,212407
135596,212387
135606,212392
135616,212395
135626,212377
135636,212384
135646,212379
135656,212364
135666,212368
135676,212377
135686,212387
135696,212393
135706,212388
135716,212406
135726,212447
135736,212436
135746,212468
135756,212377
135766,212399
135811,212477
135821,212518
135830,212464
135872,212430
135877,212493
135918,212485
135928,212487
135938,212489
135978,212425
135987,212500
135996,212532
136006,212530
136017,212544
136026,212475
136037,212526
136046,212515
136057,212539
136066,212501
136077,212531
136086,212489
136096,212514
136107,212538
136117,212521
136126,212488
136137,212492
136146,212493
136157,212513
136166,212480
136177,212522
136186,212470
136197,212517
136206,212472
136258,212367
136267,212460
136276,212404
136286,212454
136297,212532
136306,212466
136317,212530
136326,212466
136337,212518
136347,212535
136356,212462
136367,212516
136376,212448
136387,212507
136396,212445
136407,212554
136416,212459
136427,212541
136436,212451
136447,212526
136456,212412
136467,212523
136476,212408
136487,212531
136496,212392
136538,212476
136547,212494
136587,212511
136590,212474
136597,212426
136608,212416
136649,212416
136691,212461
136698,212504
136738,212452
136746,212355
136798,212507
136806,212422
136816,212386
136827,212455
136836,212437
136847,212480
136856,212434
136867,212469
136877,212446
136886,212474
136897,212463
136906,212472
136917,212462
136927,212446
136937,212438
136947,212444
136957,212430
136967,212428
136977,212413
136987,212414
136997,212406
137007,212397
137017,212409
137061,212231
137068,212071
137077,212367
137087,212365
137097,212360
137107,212357
137117,212351
137127,212378
137137,212366
137147,212375
137158,212364
137167,212357
137178,212379
137187,212352
137197,212363
137208,212382
137217,212368
137228,212367
137237,212366
137248,212386
137257,212389
137268,212366
137277,212371
137288,212385
137297,212371
137341,212219
137347,212424
137359,212370
137407,212391
137449,212407
137457,212370
137468,212379
137477,212416
137487,212418
137497,212415
137507,212470
137517,212469
137527,212407
137537,212387
137547,212380
137557,212477
137567,212412
137577,212394
137587,212407
137598,212381
137608,212402
137618,212382
137657,212357
137668,212357
137677,212447
137687,212406
137697,212497
137707,212419
137718,212410
137728,212356
137737,212423
137747,212425
137758,212344
137768,212409
137778,212366
137788,212315
137798,212360
137807,212432
137819,212333
137869,212364
137877,212428
137887,212415
137898,212393
137907,212424
137917,212428
137928,212394
137937,212412
137948,212411
137957,212422
137968,212423
137977,212408
138029,212411
138037,212477
138047,212450
138058,212453
138067,212436
138077,212446
138088,212443
138097,212438
138108,212458
138117,212420
138128,212464
138137,212424
138148,212464
138157,212430
138168,212461
138177,212424
138188,212479
138197,212447
138208,212452
138217,212423
138228,212457
138237,212432
138278,212386
138289,212413
138297,212355
138308,212471
138317,212379
138328,212481
138370,212494
138378,212465
138387,212466
138431,212381
138438,212423
138481,212469
138490,212677
138498,212498
138507,212469
138517,212465
138527,212447
138538,212549
138547,212444
138557,212397
138568,212537
138577,212413
138587,212442
138597,212403
138607,212450
138660,212496
138668,212438
138677,212354
138687,212394
138698,212477
138707,212353
138717,212315
138728,212457
138737,212312
138747,212357
138757,212317
138767,212314
138778,212427
138788,212411
138797,212306
138808,212411
138817,212269
138827,212291
138837,212276
138847,212341
138858,212396
138867,212297
138877,212314
138887,212403
138898,212411
138907,212354
138918,212418
138927,212391
138938,212408
138947,212390
138957,212394
138967,212384
138978,212388
138987,212330
139040,212359
139050,212401
139128,212393
139139,212376
139188,212356
139199,212332
139244,212341
139249,212415
139258,212409
139269,212370
139278,212333
139289,212377
139298,212349
139308,212341
139319,212364
139328,212345
139339,212355
139348,212344
139358,212360
139368,212321
139379,212344
139388,212349
139398,212347
139409,212347
139452,212253
139459,212390
139468,212401
139478,212385
139489,212340
139498,212333
139509,212364
139518,212334
139529,212375
139538,212344
139549,212368
139558,212365
139569,212350
139578,212356
139588,212354
139598,212345
139608,212333
139619,212335
139628,212346
139638,212344
139648,212329
139659,212326
139668,212326
139678,212320
139688,212316
139698,212348
139709,212321
139718,212306
139729,212336
139738,212314
139748,212324
139798,212377
139839,212376
139850,212372
139900,212383
139909,212392
139960,212328
139970,212363
139978,212359
139989,212303
139998,212253
140009,212334
140018,212399
140028,212317
140038,212372
140048,212325
140059,212364
140068,212399
140078,212405
140088,212376
140099,212378
140108,212404
140118,212356
140128,212352
140139,212413
140148,212400
140158,212349
140169,212407
140178,212417
140188,212402
140198,212388
140208,212375
140250,212357
140258,212393
140268,212351
140278,212382
140289,212416
140298,212387
140308,212371
140318,212418
140328,212385
140339,212439
140348,212405
140358,212411
140368,212347
140379,212417
140388,212381
140398,212393
140408,212363
140419,212421
140428,212396
140438,212388
140448,212368
140459,212418
140468,212392
140510,212361
140549,212408
140561,212383
140570,212387
140611,212416
140652,212437
140658,212368
140668,212265
140749,212276
140759,212405
140768,212276
140778,212276
140789,212429
140798,212359
140808,212291
140819,212415
140828,212305
140838,212297
140848,212323
140858,212289
140869,212371
140878,212326
140888,212294
140899,212402
140908,212344
140918,212254
140928,212256
140939,212401
140948,212279
140958,212240
140968,212273
140978,212301
140989,212390
140998,212276
141008,212311
141049,212356
141059,212457
141069,212348
141078,212347
141088,212382
141099,212393
141108,212344
141118,212328
141129,212403
141138,212418
141149,212410
141159,212424
141168,212414
141179,212429
141188,212437
141198,212425
141209,212407
141218,212425
141229,212419
141239,212420
141249,212442
141289,212426
141293,212279
141299,212446
141342,212423
141384,212304
141389,212472
141399,212412
141409,212446
141420,212428
141429,212411
141439,212408
141449,212451
141490,212471
141500,212430
141510,212435
141519,212383
141529,212396
141540,212363
141549,212389
141559,212356
141569,212362
141580,212387
141589,212351
141599,212354
141609,212356
141620,212359
141629,212350
141639,212363
141649,212365
141660,212355
141669,212365
141679,212349
141689,212367
141700,212358
141709,212360
141719,212346
141729,212362
141740,212349
141751,212314
141761,212266
141770,212310
141780,212244
141790,212300
141801,212382
141811,212375
141821,212313
141831,212396
141871,212271
141882,212340
141892,212403
141900,212406
141912,212283
141920,212254
141931,212401
141941,212402
141951,212318
141993,212417
142000,212411
142042,212397
142049,212508
142092,212481
142100,212583
142144,212513
142150,212594
142160,212493
142169,212562
142179,212514
142189,212558
142200,212574
142209,212570
142219,212545
142229,212517
142239,212564
142249,212553
142259,212499
142269,212536
142279,212542
142289,212504
142299,212465
142310,212518
142319,212519
142329,212455
142340,212513
142349,212500
142394,212362
142402,212484
142409,212479
142419,212455
142429,212474
142440,212483
142449,212458
142459,212412
142469,212366
142479,212453
142489,212392
142499,212342
142509,212385
142519,212399
142529,212386
142539,212324
142549,212331
142559,212412
142569,212349
142580,212481
142589,212395
142599,212404
142609,212420
142619,212347
142629,212391
142639,212411
142649,212394
142693,212284
142701,212344
142743,212407
142750,212377
142801,212448
142811,212373
142852,212467
142861,212502
142869,212349
142879,212320
142889,212409
142899,212320
142909,212360
142919,212313
142929,212363
142939,212311
142949,212348
142960,212453
142969,212323
142980,212443
142989,212339
142999,212352
143009,212369
143020,212455
143029,212331
143039,212386
143050,212452
143093,212412
143100,212421
143111,212486
143119,212417
143129,212427
143139,212432
143150,212433
143160,212468
143170,212457
143179,212479
143190,212436
143199,212449
143210,212441
143219,212459
143230,212445
143240,212434
143249,212459
143260,212441
143271,212450
143280,212470
143290,212436
143301,212443
143310,212470
143320,212439
143330,212473
143340,212450
143351,212477
143361,212461
143401,212473
143410,212507
143450,212429
143461,212385
143500,212259
143541,212413
143552,212394
143562,212412
143570,212414
143580,212418
143591,212412
143600,212394
143610,212416
143621,212429
143630,212439
143640,212394
143650,212443
143660,212436
143671,212421
143680,212437
143690,212426
143701,212398
143710,212450
143720,212416
143730,212433
143740,212449
143750,212428
143761,212425
143770,212452
143781,212425
143790,212475
143800,212439
143810,212444
143820,212461
143831,212437
143840,212450
143850,212455
143891,212476
143902,212455
143910,212395
143920,212401
143930,212463
143941,212431
143950,212453
143960,212411
143970,212392
143980,212462
143991,212397
144000,212362
144010,212456
144021,212371
144030,212458
144040,212476
144050,212398
144060,212473
144101,212465
144111,212477
144151,212475
144191,212471
144232,212493
144241,212473
144312,212489
144322,212512
144331,212404
144341,212523
144351,212547
144361,212529
144370,212508
144380,212508
144390,212520
144400,212502
144410,212510
144420,212449
144431,212516
144440,212494
144450,212444
144461,212531
144471,212529
144480,212459
144490,212389
144501,212509
144510,212372
144521,212499
144531,212489
144540,212462
144550,212449
144560,212432
144570,212365
144581,212515
144591,212514
144601,212504
144610,212424
144620,212372
144631,212498
144640,212431
144650,212432
144690,212459
144700,212456
144711,212518
144720,212366
144731,212519
144740,212423
144750,212443
144760,212427
144770,212429
144812,212460
144821,212465
144861,212407
144900,212404
144910,212388
144920,212375
144930,212380
144941,212502
144950,212365
144961,212474
144971,212458
144980,212353
144991,212480
145001,212459
145010,212416
145021,212486
145030,212434
145041,212484
145050,212401
145091,212496
145101,212506
145112,212558
145120,212476
145131,212500
145140,212431
145150,212466
145160,212483
145170,212507
145181,212499
145190,212506
145201,212496
145210,212517
145220,212521
145231,212504
145241,212511
145252,212511
145261,212512
145272,212506
145281,212537
145291,212516
145302,212522
145311,212507
145321,212539
145331,212521
145342,212517
145351,212508
145361,212509
145371,212496
145381,212525
145391,212508
145433,212410
145440,212508
145451,212430
145497,212524
145512,212499
145544,212521
145551,212444
145562,212447
145572,212471
145582,212472
145591,212520
145601,212451
145611,212466
145621,212492
145631,212474
145642,212453
145650,212521
145662,212468
145672,212462
145681,212485
145692,212473
145731,212495
145742,212462
145752,212473
145761,212362
145771,212487
145781,212477
145792,212476
145801,212480
145811,212475
145822,212455
145831,212488
145841,212476
145851,212485
145863,212464
145871,212533
145882,212449
145890,212473
145902,212493
145911,212375
145922,212402
145931,212456
145941,212471
145951,212384
145961,212476
145971,212492
145982,212423
145991,212485
146001,212480
146032,212482
146042,212471
146052,212456
146062,212431
146071,212458
146082,212464
146091,212499
146101,212443
146111,212433
146121,212469
146131,212461
146142,212482
146151,212427
146161,212486
146171,212473
146181,212425
146191,212453
146201,212470
146211,212441
146222,212488
146231,212466
146241,212490
146251,212429
146283,212457
146292,212418
146302,212468
146311,212488
146321,212473
146331,212426
146342,212502
146351,212473
146361,212481
146371,212413
146382,212523
146391,212498
146401,212488
146433,212393
146442,212418
146473,212444
146483,212525
146522,212507
146532,212486
146542,212552
146551,212413
146561,212465
146571,212476
146581,212476
146591,212412
146602,212542
146611,212469
146621,212406
146631,212452
146641,212476
146651,212392
146681,212403
146692,212457
146703,212450
146711,212429
146721,212476
146731,212415
146742,212561
146751,212442
146761,212407
146771,212404
146782,212563
146791,212411
146801,212438
146811,212402
146822,212529
146831,212441
146841,212421
146851,212409
146862,212534
146871,212388
146881,212384
146891,212399
146902,212517
146911,212403
146922,212508
146931,212401
146942,212490
146951,212389
146961,212400
146972,212482
146981,212386
146991,212456
147002,212495
147011,212452
147022,212488
147031,212394
147064,212623
147072,212519
147104,212548
147114,212485
147123,212410
147153,212414
147162,212491
147172,212488
147202,212416
147212,212523
147222,212480
147232,212455
147242,212439
147252,212458
147262,212460
147273,212437
147282,212463
147292,212444
147303,212453
147312,212437
147323,212437
147332,212417
147342,212438
147353,212454
147362,212454
147373,212455
147382,212427
147392,212428
147402,212451
147413,212423
147422,212409
147432,212417
147442,212436
147452,212464
147483,212470
147492,212512
147503,212457
147512,212433
147522,212436
147532,212457
147543,212434
147552,212442
147563,212447
147572,212452
147582,212433
147592,212412
147602,212416
147612,212451
147623,212403
147632,212451
147643,212426
147652,212435
147662,212455
147673,212421
147682,212428
147692,212447
147703,212402
147712,212449
147742,212504
147754,212435
147800,212449
147812,212503
147843,212547
147874,212466
147883,212475
147933,212465
147943,212374
147952,212466
147962,212467
147972,212485
147982,212448
147993,212346
148002,212322
148012,212459
148023,212391
148032,212452
148043,212431
148052,212483
148062,212462
148073,212441
148082,212396
148093,212473
148102,212495
148113,212474
148122,212453
148133,212485
148142,212505
148153,212457
148162,212503
148173,212488
148182,212482
148193,212474
148202,212468
148213,212476
148222,212443
148233,212459
148242,212444
148253,212460
148286,212444
148294,212430
148302,212395
148312,212419
148322,212427
148333,212451
148342,212453
148353,212472
148362,212449
148373,212461
148382,212454
148393,212474
148402,212421
148413,212443
148422,212435
148433,212460
148442,212414
148474,212457
148504,212401
148535,212370
148542,212325
148553,212441
148562,212309
148573,212448
148582,212388
148593,212420
148602,212369
148613,212429
148622,212372
148633,212461
148642,212395
148653,212453
148684,212400
148694,212452
148702,212431
148712,212382
148723,212472
148732,212302
148743,212473
148752,212315
148763,212468
148772,212321
148783,212465
148793,212478
148802,212334
148813,212444
148822,212329
148833,212424
148842,212317
148853,212418
148862,212313
148873,212411
148882,212298
148893,212429
148902,212316
148913,212402
148922,212325
148933,212403
148942,212262
148953,212400
148962,212279
148973,212409
148982,212285
148993,212396
149002,212276
149013,212404
149022,212275
149033,212409
149079,212349
149095,212393
149102,212439
149136,212451
149143,212403
149175,212383
149182,212280
149193,212384
149202,212380
149213,212372
149224,212365
149233,212359
149243,212357
149254,212363
149263,212386
149273,212390
149284,212350
149293,212342
149304,212369
149313,212348
149324,212373
149334,212365
149343,212335
149353,212373
149363,212367
149374,212360
149383,212346
149393,212368
149404,212372
149413,212330
149424,212385
149433,212343
149444,212339
149454,212335
149485,212370
149494,212342
149503,212394
149513,212347
149524,212329
149533,212348
149544,212342
149553,212293
149564,212340
149574,212357
149583,212317
149593,212331
149604,212313
149614,212324
149623,212302
149633,212343
149644,212326
149653,212333
149664,212312
149673,212325
149707,212237
149713,212352
149723,212323
149733,212330
149744,212300
149753,212385
149763,212325
149773,212317
149783,212299
149793,212308
149804,212287
149814,212314
149823,212307
149833,212304
149844,212284
149853,212304
149862,212320
149896,212271
149903,212305
149913,212290
149924,212294
149933,212181
149944,212260
149953,212280
149963,212219
149973,212302
149982,212288
149993,212284
150004,212181
150014,212218
150024,212292
150034,212294
150043,212261
150053,212228
150064,212186
150075,212272
150104,212220
150114,212287
150144,212286
150155,212299
150180,212307
150195,212299
150203,212266
150213,212301
150224,212301
150233,212314
150244,212301
150253,212286
150263,212248
150273,212285
150284,212310
150294,212299
150303,212297
150313,212289
150324,212323
150333,212287
150344,212312
150353,212285
150385,212300
150393,212265
150404,212459
150414,212314
150423,212306
150434,212323
150443,212260
150454,212334
150463,212288
150473,212257
150483,212272
150494,212334
150503,212278
150513,212254
150523,212262
150533,212275
150543,212296
150553,212270
150563,212263
150573,212271
150583,212304
150593,212283
150603,212294
150613,212269
150623,212284
150633,212290
150643,212267
150653,212250
150684,212157
150695,212269
150704,212189
150736,212358
150761,212265
150775,212276
150784,212235
150818,212342
150825,212374
150854,212219
150863,212116
150873,212147
150883,212138
150893,212153
150903,212126
150913,212113
150923,212138
150933,212140
150943,212098
150953,212120
150964,212244
150973,212138
150983,212113
150993,212146
151003,212142
151013,212178
151023,212132
151033,212158
151043,212185
151053,212203
151084,212200
151094,212240
151103,212146
151113,212236
151124,212212
151135,212227
151144,212217
151155,212229
151164,212221
151175,212204
151184,212225
151195,212238
151204,212221
151215,212219
151224,212212
151235,212215
151244,212208
151255,212224
151264,212202
151275,212193
151284,212193
151295,212208
151304,212163
151315,212219
151324,212173
151335,212190
151344,212168
151377,212142
151385,212213
151417,212270
151424,211903
151456,212092
151484,212145
151514,212272
151525,212199
151555,212212
151564,212177
151575,212169
151584,212184
151595,212170
151604,212186
151615,212164
151624,212182
151635,212166
151644,212171
151655,212177
151664,212182
151675,212184
151684,212164
151694,212156
151704,212166
151714,212201
151724,212147
151734,212140
151744,212129
151754,212201
151764,212140
151774,212163
151784,212154
151794,212221
151804,212201
151814,212198
151824,212129
151834,212190
151844,212147
151854,212187
151886,212242
151894,212147
151904,212147
151914,212167
151924,212160
151934,212174
151944,212183
151954,212156
151964,212164
151974,212174
151984,212159
152015,212159
152025,212137
152055,212135
152085,211991
152094,212162
152104,212166
152114,212109
152124,212160
152134,212143
152144,212168
152154,212095
152165,212166
152174,212165
152184,212132
152194,212136
152204,212174
152214,212164
152224,212154
152234,212090
152244,212131
152254,212140
152284,212105
152294,212086
152304,212134
152314,212055
152324,212063
152334,212115
152344,212130
152354,212056
152364,212129
152374,212129
152384,212119
152394,212120
152404,212117
152414,212123
152424,212120
152434,212076
152444,212116
152454,212112
152464,212137
152474,212034
152484,212146
152494,212131
152504,212137
152514,212137
152524,212151
152534,212139
152544,212133
152554,212041
152564,212121
152574,212093
152584,212106
152616,212203
152625,212150
152656,212014
152688,212061
152716,212224
152725,212059
152734,212082
152744,212054
152754,212055
152764,212066
152774,212081
152784,212020
152794,212033
152804,212020
152814,212056
152824,212018
152834,212065
152844,212062
152854,212025
152864,212051
152874,212074
152884,212073
152894,212101
152904,212068
152914,212094
152924,212037
152934,212102
152944,212060
152954,212093
152964,212072
152974,212101
152984,212079
152994,212100
153005,212101
153015,212089
153025,212103
153035,212097
153044,212076
153055,212103
153086,212099
153094,212105
153104,212106
153115,212111
153125,212077
153135,212104
153145,212085
153155,212081
153165,212098
153175,212084
153185,212087
153195,212085
153205,212071
153215,212069
153225,212080
153256,212075
153266,212095
153294,212098
153306,212074
153336,212073
153346,212137
153355,212073
153365,212087
153375,212071
153385,212068
153395,212064
153405,212087
153415,212069
153425,212053
153435,212068
153445,212062
153455,212068
153486,212113
153495,212018
153505,212146
153516,212103
153525,212113
153536,212102
153544,212171
153555,212117
153565,212112
153576,212096
153586,212083
153595,212092
153606,212078
153616,212107
153626,212107
153656,212073
153665,212133
153675,212129
153685,212045
153695,212055
153705,212118
153715,212124
153726,212119
153736,212116
153745,212115
153756,212076
153766,212129
153775,212117
153785,212122
153795,212035
153805,212100
153815,212100
153825,212076
153835,211986
153845,212072
153878,212089
153886,212082
153916,212063
153927,212051
153961,212103
153966,212062
153976,212060
154005,211972
154016,212110
154025,212078
154035,212107
154045,212061
154055,212060
154065,212106
154075,212131
154085,212094
154095,212050
154105,212048
154115,212064
154125,212073
154135,212022
154145,212023
154155,212074
154165,212056
154175,212012
154185,212045
154195,212065
154205,212048
154215,212028
154225,212008
154235,212054
154245,212033
154255,212004
154286,212051
154295,212002
154306,212123
154315,212040
154325,212025
154335,212002
154345,211995
154355,212052
154365,212057
154375,212002
154385,211969
154395,212033
154405,212023
154415,211970
154425,212036
154435,212037
154445,212034
154455,211972
154465,211960
154475,212018
154506,211989
154517,212094
154546,212097
154559,212120
154566,211955
154596,212121
154627,212103
154636,212061
154670,211966
154705,211915
154715,211934
154725,211944
154735,211936
154745,211918
154755,211922
154765,211935
154775,211961
154785,211898
154795,211967
154805,211967
154815,212010
154825,211983
154835,212003
154845,211996
154855,212030
154865,211984
154876,212019
154886,212002
154896,212013
154906,211995
154916,212021
154926,211991
154936,212026
154946,212004
154956,211994
154965,211991
154976,212018
154986,212026
154996,212023
155006,212023
155016,212008
155026,212031
155036,212021
155046,212012
155056,212008
155086,212009
155096,212018
155106,212011
155116,212010
155126,211976
155136,211969
155146,212020
155156,211996
155166,211990
155208,212003
155217,211963
155249,211838
155286,212045
155296,211996
155306,211999
155316,212000
155326,211986
155336,212017
155346,212007
155356,212020
155367,211988
155376,212016
155386,212009
155396,212021
155406,212007
155416,212038
155426,212026
155436,212026
155447,212009
155456,212012
155488,212094
155496,212031
155507,212006
155517,212003
155526,212003
155536,212024
155546,212030
155556,212020
155567,211997
155576,211991
155586,212025
155596,212025
155606,211967
155616,212030
155627,212008
155637,211964
155646,211971
155656,212027
155666,212015
155676,212012
155686,211957
155696,211979
155706,211978
155716,212001
155726,211884
155736,211977
155746,211969
155756,211965
155767,211904
155776,211884
155809,211785
155817,211960
155879,211877
155909,212012
155935,211972
155940,211967
155946,211986
155957,211999
155966,211982
155976,211952
155987,211993
155996,211996
156006,211960
156016,211954
156026,211933
156036,211935
156046,211972
156056,211940
156066,211934
156076,211923
156086,211971
156096,211921
156107,211997
156116,211983
156126,211918
156136,211922
156146,211935
156156,211914
156167,212011
156176,211961
156186,211920
156196,211903
156206,211941
156216,211912
156226,211909
156236,211899
156246,211949
156256,211906
156286,211919
156297,212014
156306,211964
156316,211894
156326,211896
156336,211896
156346,211965
156356,211885
156366,211964
156376,211885
156386,211909
156396,211916
156406,211962
156416,211892
156426,211881
156436,211911
156446,211970
156478,212062
156508,211992
156516,211998
156547,211997
156558,211995
156566,211922
156576,211882
156587,212024
156596,211874
156606,211870
156616,211872
156626,211898
156636,211818
156647,212002
156680,211769
156687,211952
156696,211859
156706,211861
156716,211896
156726,211894
156736,211924
156746,211928
156756,211930
156767,211939
156777,211946
156787,211925
156796,211934
156806,211965
156816,211941
156826,211936
156836,211940
156847,211927
156857,211920
156867,211918
156876,211922
156886,211951
156896,211938
156907,211931
156917,211932
156927,211907
156937,211924
156947,211908
156958,211932
156967,211954
156977,211911
156987,211919
156997,211955
157007,211892
157017,211900
157027,211930
157037,211946
157047,211904
157095,211769
157099,211939
157107,211853
157137,211924
157148,211973
157156,211931
157188,211921
157198,211936
157207,211921
157217,211930
157227,211926
157236,211959
157248,211931
157256,211982
157267,211927
157276,211950
157287,211934
157297,211915
157307,211935
157318,211879
157328,211916
157337,211857
157347,211867
157357,211940
157392,211938
157397,211946
157408,211920
157418,211916
157427,211938
157438,211910
157448,211933
157459,211937
157468,211954
157477,211946
157487,211859
157498,211947
157506,211841
157517,211929
157528,211904
157537,211912
157548,211892
157557,211847
157586,211896
157597,211910
157607,211863
157617,211880
157627,211874
157638,211797
157648,211803
157658,211794
157668,211777
157677,211879
157687,211877
157697,211887
157707,211871
157718,211828
157728,211831
157738,211849
157748,211845
157757,211881
157767,211873
157777,211881
157787,211897
157798,211894
157808,211868
157818,211878
157828,211891
157837,211873
157847,211876
157877,211902
157887,211871
157898,211893
157908,211904
157917,211883
157927,211887
157937,211863
157947,211875
157958,211933
157968,211938
157978,211927
157988,211930
157997,211860
158007,211865
158017,211882
158027,211875
158038,211923
158048,211951
158058,211932
158068,211935
158098,211934
158129,211887
158140,211931
158167,211876
158198,211644
158208,211902
158238,211876
158247,211816
158257,211832
158267,211803
158278,211979
158288,211983
158318,211846
158327,211890
158338,211988
158348,211985
158358,211983
158368,211987
158378,211972
158388,211983
158397,211851
158407,211831
158417,211839
158427,211818
158438,211997
158448,211994
158458,211973
158468,211975
158477,211839
158487,211829
158497,211801
158507,211817
158518,211926
158528,211939
158538,211925
158548,211920
158557,211865
158567,211745
158577,211763
158587,211758
158598,211913
158608,211917
158618,211888
158628,211892
158637,211771
158647,211762
158678,211876
158687,211799
158698,211892
158708,211906
158718,211901
158728,211881
158757,211879
158759,211818
158770,211893
158796,211795
158833,211798
158838,211883
158848,211878
158858,211879
158868,211886
158877,211845
158888,211871
158898,211891
158908,211891
158917,211838
158928,211883
158938,211881
158948,211870
158957,211874
158968,211879
158978,211872
158988,211898
158998,211891
159008,211870
159018,211904
159028,211896
159039,211895
159049,211902
159079,211895
159088,211881
159099,211901
159109,211905
159118,211890
159128,211896
159138,211917
159148,211897
159159,211890
159168,211924
159179,211890
159189,211912
159198,211905
159208,211892
159218,211897
159228,211896
159239,211893
159249,211886
159259,211886
159269,211885
159278,211910
159288,211895
159298,211910
159308,211894
159319,211898
159329,211898
159362,211952
159369,211900
159401,211766
159408,211895
159440,211788
159448,211866
159458,211858
159468,211845
159499,211866
159509,211862
159518,211844
159528,211844
159538,211855
159548,211860
159559,211842
159569,211816
159579,211834
159589,211849
159598,211857
159608,211869
159618,211872
159628,211840
159639,211790
159649,211807
159659,211799
159669,211794
159678,211843
159688,211856
159698,211851
159708,211844
159719,211754
159729,211760
159739,211806
159749,211805
159758,211846
159768,211858
159778,211855
159788,211852
159799,211831
159809,211845
159819,211829
159829,211841
159838,211837
159848,211838
159881,211839
159889,211852
159898,211847
159908,211843
159918,211820
159928,211827
159938,211828
159972,211771
159978,211833
160009,211490
160051,211813
160058,211812
160069,211873
160078,211851
160089,211866
160099,211892
160109,211893
160118,211854
160129,211895
160139,211882
160149,211872
160158,211844
160168,211846
160179,211907
160189,211903
160199,211907
160209,211895
160219,211907
160229,211900
160238,211844
160249,211887
160282,211720
160289,211865
160298,211820
160309,211905
160319,211895
160329,211870
160339,211886
160349,211872
160358,211809
160369,211851
160379,211861
160389,211837
160398,211795
160409,211817
160419,211839
160429,211842
160438,211758
160449,211845
160459,211842
160469,211842
160478,211748
160489,211837
160499,211863
160509,211873
160518,211717
160529,211835
160539,211863
160549,211875
160589,211717
160618,211740
160620,211865
160631,211770
160638,211715
160670,211862
160678,211696
160709,211798
160719,211692
160728,211690
160739,211787
160749,211786
160759,211788
160769,211803
160779,211798
160789,211806
160798,211710
160809,211791
160819,211798
160829,211785
160838,211656
160849,211798
160859,211789
160869,211793
160878,211717
160889,211796
160899,211802
160909,211795
160918,211736
160929,211794
160939,211805
160949,211809
160958,211774
160969,211794
160979,211807
160989,211800
160998,211804
161009,211808
161019,211806
161029,211828
161038,211824
161049,211817
161082,211809
161089,211807
161100,211814
161109,211813
161120,211821
161130,211826
161140,211814
161148,211818
161160,211829
161170,211824
161180,211829
161189,211811
161200,211826
161209,211880
161250,211816
161290,211789
161302,211738
161309,211766
161319,211776
161329,211775
161339,211787
161349,211785
161358,211798
161370,211777
161379,211797
161389,211789
161399,211807
161409,211762
161419,211764
161429,211771
161438,211780
161450,211803
161461,211759
161499,211750
161509,211771
161520,211796
161530,211755
161539,211839
161550,211779
161560,211784
161569,211780
161579,211776
161589,211793
161600,211763
161609,211760
161620,211790
161629,211751
161639,211781
161649,211832
161683,211798
161712,211788
161720,211756
161751,211735
161760,211805
161769,211778
161780,211765
161790,211698
161800,211714
161810,211693
161820,211754
161829,211731
161840,211768
161850,211782
161860,211690
161869,211759
161880,211804
161890,211819
161900,211823
161909,211807
161920,211853
161929,211851
161940,211853
161949,211839
161982,211727
161991,211838
162000,211822
162009,211849
162020,211875
162030,211866
162040,211869
162050,211855
162060,211863
162069,211815
162080,211875
162090,211867
162100,211872
162109,211853
162120,211881
162130,211897
162140,211879
162149,211835
162159,211788
162169,211804
162180,211854
162189,211774
162200,211868
162209,211773
162219,211858
162229,211860
162240,211872
162250,211872
162311,211788
162321,211891
162330,211872
162340,211909
162372,211894
162381,211845
162413,211794
162449,211798
162459,211876
162469,211885
162479,211896
162489,211861
162499,211857
162509,211826
162519,211840
162529,211802
162539,211787
162549,211805
162559,211798
162569,211802
162579,211805
162589,211779
162599,211800
162609,211792
162619,211797
162629,211810
162639,211838
162649,211805
162682,211885
162691,211933
162699,211841
162709,211825
162719,211837
162729,211827
162739,211824
162749,211767
162759,211793
162769,211820
162779,211852
162789,211853
162799,211872
162809,211883
162819,211945
162829,211901
162839,211892
162849,211905
162859,211941
162869,211884
162879,211922
162889,211925
162899,211952
162911,211957
162920,211959
162930,211944
162941,211954
162950,211942
162981,211982
162990,211939
163000,211877
163033,211825
163040,211922
163072,211904
163079,211788
163113,211921
163120,211954
163131,211884
163141,211879
163151,211883
163160,211892
163171,211877
163181,211860
163191,211833
163200,211840
163211,211812
163221,211813
163231,211809
163240,211762
163251,211797
163261,211774
163271,211767
163280,211788
163291,211776
163301,211755
163311,211744
163320,211757
163331,211762
163341,211723
163351,211734
163361,211721
163371,211713
163381,211708
163391,211729
163400,211705
163411,211716
163421,211735
163431,211724
163440,211726
163450,211727
163483,211776
163491,211770
163500,211701
163510,211705
163520,211699
163530,211690
163540,211673
163550,211721
163560,211701
163570,211672
163602,211787
163611,211779
163622,211713
163652,211622
163682,211693
163690,211784
163723,211721
163731,211791
163740,211769
163750,211826
163760,211769
163770,211801
163780,211798
163790,211796
163800,211756
163810,211787
163820,211803
163830,211815
163840,211821
163850,211812
163883,211770
163890,211756
163900,211776
163910,211802
163920,211779
163930,211779
163940,211790
163950,211770
163960,211766
163970,211771
163980,211769
163990,211763
164000,211754
164010,211765
164020,211764
164030,211772
164040,211758
164050,211777
164060,211765
164070,211745
164080,211758
164090,211753
164100,211730
164110,211714
164120,211741
164130,211743
164140,211748
164150,211763
164160,211730
164170,211740
164180,211745
164190,211754
164200,211797
164210,211766
164220,211765
164230,211760
164265,211739
164293,211771
164323,211863
164331,211790
164341,211738
164374,211777
164381,211777
164390,211673
164400,211712
164410,211722
164421,211854
164430,211697
164440,211717
164450,211689
164460,211686
164470,211689
164480,211729
164490,211714
164500,211732
164510,211664
164520,211704
164530,211681
164540,211718
164550,211696
164560,211726
164570,211694
164580,211721
164590,211742
164600,211754
164610,211703
164620,211736
164630,211774
164640,211794
164650,211775
164683,211825
164691,211686
164700,211823
164710,211831
164721,211812
164731,211804
164741,211790
164751,211780
164761,211802
164771,211772
164781,211771
164791,211777
164801,211768
164811,211785
164821,211780
164831,211761
164841,211801
164851,211763
164861,211772
164871,211761
164881,211760
164942,211791
164952,211703
164963,211651
164971,211698
165004,211704
165012,211762
165041,211661
165051,211603
165083,211624
165093,211639
165101,211626
165111,211625
165121,211616
165131,211616
165141,211602
165151,211594
165161,211607
165171,211611
165181,211607
165191,211584
165201,211590
165211,211554
165221,211555
165231,211582
165241,211565
165251,211603
165261,211595
165271,211568
165281,211552
165291,211577
165301,211552
165311,211509
165321,211561
165331,211548
165341,211546
165351,211517
165361,211494
165371,211518
165381,211501
165391,211492
165401,211590
165411,211543
165421,211571
165431,211595
165441,211579
165451,211591
165482,211646
165492,211633
165501,211641
165510,211648
165521,211630
165531,211650
165543,211580
165551,211638
165562,211595
165572,211617
165581,211692
165592,211567
165601,211686
165611,211677
165621,211665
165632,211517
165641,211657
165678,211538
165692,211601
165702,211601
165711,211657
165721,211736
165731,211691
165741,211670
165751,211686
165761,211684
165771,211694
165781,211670
165792,211670
165801,211708
165812,211669
165822,211721
165831,211661
165841,211658
165852,211661
165882,211729
165891,211717
165922,211701
165934,211737
165964,211658
166002,211773
166033,211705
166042,211649
166051,211652
166062,211774
166071,211653
166081,211717
166092,211785
166101,211709
166111,211727
166121,211719
166132,211795
166141,211737
166151,211720
166161,211734
166172,211801
166181,211742
166191,211716
166201,211708
166212,211815
