elapsed_ms,ir
47337,192306
47347,192241
47357,192323
47368,192286
47377,192298
47387,192299
47397,192339
47407,192348
47417,192316
47427,192332
47437,192341
47447,192341
47457,192342
47467,192333
47477,192327
47487,192351
47497,192346
47507,192352
47517,192342
47527,192355
47537,192360
47547,192351
47557,192355
47567,192350
47577,192368
47587,192349
47597,192370
47607,192364
47617,192376
47627,192343
47637,192351
47647,192339
47657,192332
47667,192348
47677,192313
47687,192316
47697,192305
47707,192320
47717,192320
47727,192336
47737,192314
47747,192321
47757,192285
47767,192342
47777,192363
47787,192426
47798,192450
47807,192400
47817,192417
47827,192425
47839,192416
47848,192453
47891,192391
47930,192339
47937,192367
47947,192450
47957,192471
47967,192487
47977,192481
47987,192493
47997,192503
48007,192521
48017,192527
48027,192514
48037,192512
48047,192475
48057,192450
48067,192412
48077,192366
48087,192344
48097,192266
48107,192158
48117,192090
48127,192004
48138,192011
48149,191968
48157,191853
48167,191810
48178,191981
48187,191864
48197,191925
48208,192175
48217,192118
48227,192225
48238,192403
48247,192532
48258,192886
48267,193007
48278,193362
48287,193389
48298,193687
48307,193690
48318,193918
48327,193947
48338,194238
48347,194234
48358,194431
48367,194373
48378,194453
48387,194344
48398,194371
48407,194340
48418,194555
48427,194658
48470,191968
48512,193911
48550,193788
48555,192175
48559,193054
48568,192920
48578,192679
48588,192527
48598,192383
48608,192273
48618,192221
48628,192145
48638,192039
48648,191930
48658,191772
48668,191675
48678,191557
48688,191539
48698,191532
48708,191559
48718,191552
48728,191514
48738,191430
48748,191340
48758,191158
48768,191013
48778,190895
48788,190841
48798,190865
48808,190870
48818,190868
48828,190856
48838,190815
48848,190774
48858,190752
48868,190729
48878,190696
48888,190697
48898,190726
48908,190748
48918,190778
48928,190773
48938,190716
48949,190666
48958,190693
48968,190589
48978,190582
48988,190604
48998,190584
49008,190577
49018,190572
49028,190568
49038,190548
49048,190544
49058,190532
49103,190213
49138,190358
49150,190215
49195,189953
49198,190081
49209,190106
49218,190115
49228,190148
49239,190223
49248,190200
49258,190211
49268,190250
49279,190299
49288,190307
49298,190311
49308,190269
49319,190227
49328,190315
49338,190396
49349,190419
49359,190380
49368,190384
49379,190297
49389,190367
49398,190395
49408,190374
49418,190384
49461,190389
49469,190425
49479,190280
49488,190383
49498,190345
49508,190352
49518,190345
49529,190283
49538,190271
49548,190340
49558,190272
49569,190308
49578,190312
49588,190314
49598,190296
49609,190273
49618,190295
49628,190301
49639,190338
49648,190325
49658,190357
49668,190340
49679,190333
49688,190361
49698,190353
49741,190619
49749,190615
49800,191311
49809,191132
49849,191180
49852,191217
49860,191394
49869,191312
49878,191377
49889,191421
49898,191290
49908,191329
49919,191364
49928,191287
49938,191263
49948,191194
49959,191165
49968,191057
49978,190979
49988,190896
49999,191009
50008,190866
50018,190788
50028,190743
50039,190787
50048,190660
50058,190568
50068,190495
50078,190424
50089,190418
50098,190314
50108,190292
50119,190342
50128,190327
50139,190524
50149,190448
50158,190707
50168,190912
50178,191083
50188,191234
50199,191504
50208,191555
50218,191766
50228,192010
50239,192339
50248,192389
50258,192541
50268,192565
50278,192706
50289,192869
50298,192792
50308,192871
50318,193032
50329,193231
50339,193339
50348,193374
50359,193590
50400,193825
50404,190568
50410,194092
50461,193190
50468,192867
50511,192137
50518,191922
50528,191871
50538,191888
50588,191773
50598,191795
50609,191801
50618,191743
50628,191708
50638,191775
50649,191812
50658,191796
50668,191835
50679,191961
50689,192048
50698,192135
50708,192187
50719,192286
50728,192341
50739,192393
50749,192471
50758,192511
50769,192588
50780,192711
50789,192802
50800,192947
50809,193108
50820,193343
50829,193583
50840,193820
50849,193968
50860,194068
50869,194156
50880,194304
50889,194501
50900,194734
50909,194944
50920,195135
50929,195235
50940,195365
50989,195708
50999,195959
51010,195992
51019,196347
51070,198565
51110,198862
51120,198433
51132,198323
51170,198050
51213,194501
51219,198462
51269,198583
51279,198613
51290,198650
51299,198660
51309,198690
51320,198754
51329,198820
51340,198819
51390,198416
51400,198261
51409,198189
51419,198097
51429,198068
51439,198032
51450,197978
51459,197911
51469,197870
51479,197902
51490,197937
51499,197937
51509,197895
51519,197900
51530,197900
51539,197847
51549,197667
51559,197598
51570,197511
51579,197416
51589,197224
51599,197154
51610,197224
51619,197356
51629,197376
51639,197383
51650,197458
51659,197529
51669,197533
51679,197489
51690,197459
51699,197502
51709,197440
51719,197348
51730,197320
51739,197317
51812,197121
51815,197870
51820,196639
51829,196592
51870,196441
51875,197895
51880,195806
51922,195329
51930,195381
51939,195236
51949,195218
51960,195152
51969,195109
51979,195027
51989,195008
51999,194932
52010,194920
52019,194814
52029,194827
52039,194767
52050,194720
52059,194579
52069,194569
52079,194462
52089,194390
52099,194293
52109,194376
52119,194366
52129,194360
52140,194379
52184,194119
52190,194072
52200,194134
52209,194011
52220,194070
52229,193947
52241,194048
52249,193925
52259,193925
52299,193832
52310,193916
52321,193875
52329,193749
52339,193651
52351,193739
52359,193575
52369,193537
52380,193657
52390,193520
52400,193677
52409,193605
52419,193606
52461,193610
52470,193591
52519,193443
52560,193414
52570,193428
52610,193556
52619,193418
52629,193394
52640,193532
52649,193428
52660,193505
52669,193364
52680,193484
52689,193383
52699,193403
52709,193403
52719,193379
52729,193406
52740,193507
52749,193345
52759,193364
52770,193473
52779,193375
52789,193307
52799,193362
52809,193335
52820,193396
52829,193333
52840,193416
52849,193310
52859,193391
52869,193312
52880,193410
52889,193340
52899,193391
52909,193312
52920,193380
52929,193366
52940,193349
52984,193280
52990,193327
52999,193319
53010,193305
53019,193292
53031,193261
53040,193251
53050,193240
53061,193235
53111,193261
53120,193230
53163,193136
53171,193249
53220,193253
53230,193180
53240,193177
53250,193226
53260,193211
53270,193193
53280,193156
53290,193185
53300,193160
53311,193137
53320,193126
53330,193125
53340,193131
53385,193096
53391,192984
53400,193096
53410,193074
53420,193044
53431,193039
53440,193026
53451,193065
53460,193041
53470,193029
53480,193058
53490,193063
53500,193063
53510,193068
53520,193124
53530,193144
53540,193120
53550,193126
53560,193120
53570,193118
53581,193120
53590,193116
53600,193104
53611,193085
53620,193072
53630,193063
53640,193050
53650,193084
53660,193056
53670,193018
53680,193028
53690,193021
53700,192995
53710,192953
53720,192947
53762,192925
53772,192824
53821,192854
53865,192720
53872,192776
53880,192877
53923,193104
53931,192851
53940,192841
53950,192836
53961,192803
53970,192841
53980,192796
53990,192846
54000,192776
54010,192822
54021,192817
54030,192677
54040,192775
54051,192738
54060,192790
54070,192773
54080,192708
54090,192737
54101,192751
54110,192672
54120,192716
54131,192752
54140,192728
54184,192684
54191,192682
54200,192782
54210,192793
54221,192806
54230,192748
54241,192797
54250,192781
54261,192782
54270,192760
54280,192685
54291,192746
54300,192709
54310,192692
54320,192681
54330,192654
54340,192685
54350,192704
54360,192680
54370,192664
54380,192601
54390,192683
54400,192632
54410,192587
54420,192624
54430,192635
54472,192710
54480,192558
54490,192604
54541,192587
54551,192615
54590,192545
54601,192654
54610,192565
54620,192576
54630,192527
54641,192630
54650,192601
54660,192544
54670,192590
54680,192459
54722,192577
54730,192313
54741,192500
54750,192463
54760,192473
54770,192438
54781,192596
54790,192496
54800,192455
54810,192461
54821,192589
54830,192517
54840,192452
54851,192597
54860,192445
54870,192445
54880,192434
54891,192565
54900,192443
54911,192547
54920,192427
54931,192513
54940,192420
54951,192481
54961,192468
54970,192410
54980,192437
54991,192510
55000,192377
55010,192370
55020,192397
55030,192377
55040,192380
55085,192359
55090,192337
55100,192312
55143,192406
55147,192455
55151,192398
55162,192329
55203,192319
55213,192425
55221,192223
55264,192198
55311,192162
55322,192179
55361,192250
55370,192223
55381,192206
55391,192223
55402,192197
55412,192219
55420,192233
55431,192206
55442,192220
55451,192202
55462,192237
55505,192289
55511,192269
55521,192238
55531,192238
55542,192239
55552,192238
55561,192224
55571,192226
55581,192247
55591,192216
55601,192214
55611,192215
55622,192212
55631,192198
55641,192211
55652,192189
55661,192187
55671,192177
55682,192169
55691,192157
55701,192186
55711,192178
55721,192196
55731,192217
55742,192203
55751,192215
55761,192213
55771,192221
55782,192196
55792,192217
55801,192187
55811,192220
55822,192194
55831,192215
55841,192206
55893,192273
55937,192200
55942,192189
55952,192221
56036,192211
56091,192203
56101,192207
56111,192158
56121,192125
56131,192203
56142,192190
56151,192254
56162,192223
56171,192189
56181,192287
56192,192325
56201,192483
56211,192628
56222,192673
56231,192665
56241,192806
56293,192736
56301,192873
56312,192723
56321,192753
56331,192680
56342,192618
56351,192508
56361,192547
56372,192499
56381,192479
56391,192489
56402,192527
56411,192528
56421,192550
56431,192527
56441,192490
56452,192516
56461,192523
56471,192477
56482,192497
56491,192536
56501,192450
56512,192500
56521,192491
56531,192414
56542,192444
56551,192451
56561,192418
56571,192321
56582,192372
56621,192308
56625,192833
56705,192218
56709,192618
56713,192354
56721,192196
56731,192215
56742,192325
56751,192264
56761,192295
56771,192287
56781,192298
56793,192398
56801,192331
56852,192425
56861,192331
56872,192437
56882,192425
56892,192417
56902,192418
56912,192260
56922,192377
56931,192239
56942,192333
56951,192216
56962,192289
56972,192229
57012,192236
57021,192225
57031,192136
57041,192191
57052,192285
57061,192164
57072,192284
57081,192191
57092,192259
57101,192147
57112,192248
57121,192106
57132,192271
57182,192159
57192,192147
57201,192096
57212,192175
57221,192032
57232,192130
57241,192072
57251,192058
57262,192138
57271,192057
57282,192111
57291,192004
57302,192135
57311,192018
57322,192139
57331,192052
57342,192149
57351,192056
57362,192170
57371,192054
57381,192073
57392,192190
57401,192104
57412,192194
57421,192103
57432,192197
57441,192120
57491,192094
57502,192259
57511,192198
57563,192214
57605,192196
57645,192189
57655,192110
57661,192081
57672,192167
57683,192165
57691,192196
57702,192177
57712,192174
57723,192163
57731,192156
57743,192180
57753,192176
57762,192146
57771,192134
57783,192135
57792,192148
57802,192130
57813,192150
57822,192167
57832,192162
57875,192125
57883,192146
57892,192150
57903,192177
57912,192173
57923,192220
57932,192216
57943,192264
57952,192267
57963,192313
57972,192361
57983,192423
57993,192504
58002,192522
58013,192568
58022,192614
58033,192604
58043,192616
58052,192621
58063,192602
58072,192609
58083,192596
58092,192591
58103,192637
58112,192589
58123,192608
58132,192630
58142,192641
58153,192690
58202,192731
58245,192833
58253,192796
58295,193089
58302,193098
58353,192856
58364,192872
58373,192819
58383,192785
58392,192717
58403,192686
58412,192600
58423,192648
58432,192629
58443,192603
58452,192485
58463,192541
58473,192547
58483,192520
58492,192520
58503,192491
58512,192521
58523,192502
58532,192547
58542,192529
58553,192502
58563,192568
58573,192475
58583,192469
58592,192566
58603,192489
58613,192533
58622,192474
58633,192557
58684,192574
58692,192501
58702,192600
58713,192558
58722,192551
58733,192505
58742,192460
58753,192476
58762,192520
58773,192502
58783,192515
58792,192524
58803,192517
58812,192493
58823,192473
58833,192518
58842,192519
58853,192518
58862,192499
58914,192363
58957,192237
58963,192417
58974,192340
59014,192256
59024,192264
59032,192266
59042,192250
59052,192243
59062,192253
59106,192242
59112,192347
59122,192124
59133,192171
59142,192095
59152,192180
59162,192177
59172,192138
59182,192152
59192,192131
59202,192123
59212,192175
59222,192166
59232,192184
59242,192170
59252,192157
59262,192167
59272,192124
59282,192135
59292,192141
59302,192139
59312,192125
59322,192130
59332,192121
59342,192099
59352,192091
59362,192101
59372,192119
59382,192080
59392,192075
59402,192063
59412,192045
59422,192020
59432,192007
59482,191939
59493,191858
59503,191937
59512,191864
59523,191890
59576,191818
59624,191603
59633,191551
59674,191585
59717,191603
59724,191495
59772,191480
59783,191545
59792,191432
59802,191428
59812,191425
59822,191415
59833,191482
59842,191409
59852,191316
59862,191340
59872,191329
59923,191376
59933,191256
59942,191305
59952,191249
59962,191241
59972,191199
59982,191224
59992,191205
60002,191230
60012,191141
60022,191147
60032,191152
60042,191179
60052,191149
60062,191178
60072,191182
60082,191229
60092,191208
60103,191237
60113,191279
60123,191315
60133,191380
60142,191449
60153,191465
60163,191485
60173,191539
60183,191583
60193,191616
60203,191681
60213,191729
60223,191840
60233,191936
60277,192217
60325,192598
60335,192744
60378,192893
60423,193266
60433,193272
60443,193279
60453,193263
60463,193229
60473,193217
60483,193195
60493,193209
60503,193191
60513,193160
60523,193117
60533,193094
60543,193061
60553,193031
60563,193029
60573,192996
60583,192989
60593,192989
60603,192999
60613,193006
60623,193038
60633,193087
60684,193226
60693,193290
60703,193258
60713,193252
60723,193244
60733,193242
60743,193237
60753,193230
60763,193181
60773,193199
60783,193176
60793,193175
60803,193215
60813,193158
60823,193140
60833,193136
60843,193124
60853,193136
60863,193139
60873,193112
60883,193149
60893,193158
60903,193188
60913,193200
60965,193345
60973,193193
61016,193203
61064,193090
61074,193079
61083,193026
61093,193028
61104,192974
61113,192996
61123,193020
61134,192893
61143,192993
61153,193106
61163,193104
61213,193208
61223,193206
61233,193212
61244,193120
61254,193179
61263,193230
61274,193261
61284,193277
61294,193242
61303,193273
61313,193256
61323,193320
61367,193448
61375,193549
61384,193616
61394,193749
61403,193749
61413,193803
61423,193882
61433,193880
61443,193949
61453,194111
61463,194101
61473,194188
61483,194291
61493,194293
61503,194405
61513,194376
61523,194387
61533,194438
61543,194596
61553,194718
61563,194999
61573,195374
61616,196545
61624,196641
61634,196793
61643,196789
61653,196781
61663,196913
61673,196902
61683,196885
61693,196809
61703,196776
61713,196591
61723,196468
61733,196394
61744,196771
61753,196926
61763,197216
61773,197275
61783,197456
61793,197501
61803,197621
61813,197811
61823,197926
61874,198232
61914,198370
61924,198618
61968,198547
61985,197729
62034,198385
62043,198344
62053,198202
62064,198131
62073,197955
62083,197782
62093,197416
62103,197183
62113,197358
62123,197518
62133,197505
62144,197563
62153,197491
62163,197679
62173,197829
62184,198071
62194,198275
62204,198326
62214,198205
62223,197878
62233,197317
62279,195125
62285,194948
62295,194520
62304,194190
62314,193904
62324,193761
62335,193729
62344,193761
62354,193829
62364,193855
62374,193868
62384,193875
62394,193910
62404,194086
62414,194286
62424,194358
62434,194338
62444,194232
62454,194038
62464,193819
62474,193541
62484,193287
62494,193074
62504,192902
62514,192775
62524,192677
62534,192579
62575,192455
62578,191773
62586,191871
62595,191841
62645,192505
62687,192773
62695,193655
62704,193516
62747,194496
62756,194703
62765,194641
62775,194677
62784,194707
62794,194693
62804,194657
62814,194656
62824,194596
62834,194543
62844,194490
62855,194438
62864,194375
62874,194342
62884,194293
62894,194209
62904,194140
62914,194183
62924,194345
62934,194196
62945,194254
62954,194200
62964,194254
62974,194269
62984,194264
62994,194285
63004,194232
63014,194239
63024,194205
63034,194244
63080,194180
63084,194404
63095,194402
63104,194435
63114,194507
63124,194590
63134,194646
63144,194622
63154,194797
63164,194852
63174,194946
63184,194932
63194,195102
63204,195206
63214,195302
63224,195307
63234,195448
63244,195462
63254,195483
63264,195438
63306,195230
63315,195169
63326,195132
63375,194826
63387,194741
63436,194960
63445,194944
63454,195015
63464,195088
63474,195128
63525,195453
63536,195497
63544,195503
63555,195547
63565,195624
63575,195654
63584,195585
63594,195623
63604,195650
63614,195687
63625,195786
63635,195822
63645,195859
63654,195813
63665,195897
63675,195929
63684,195847
63694,195848
63705,195950
63715,196012
63725,196040
63734,195982
63745,196117
63754,196060
63764,196141
63774,196218
63785,196374
63795,196387
63805,196391
63814,196292
63825,196376
63835,196393
63880,196571
63885,196627
63896,196699
63905,196787
63915,196844
63925,196938
63934,196967
63944,197082
63954,197107
63999,197469
64006,197642
64095,198293
64105,198351
64145,198326
64189,198489
64197,198496
64207,198475
64245,198561
64254,198480
64265,198602
64275,198610
64285,198660
64294,198651
64338,197750
64344,198763
64355,198814
64364,198770
64374,198789
64384,198774
64394,198801
64405,198852
64414,198847
64425,198886
64435,198875
64445,198862
64455,198805
64464,198762
64475,198762
64485,198777
64495,198802
64504,198835
64515,198839
64525,198877
64535,198893
64546,198905
64555,198901
64566,198882
64576,198856
64585,198838
64595,198800
64605,198771
64615,198779
64626,198827
64636,198831
64685,198940
64695,198613
64705,198957
64715,198974
64725,199005
64735,199174
64745,199345
64837,199741
64884,199862
64896,199794
64905,199744
64916,199661
64926,199630
64936,199555
64945,199485
64955,199413
64965,199321
64975,199199
64986,199089
64995,198948
65005,198547
65015,197903
65026,197329
65036,196764
65086,194007
65096,193532
65105,193277
65115,193048
65125,192984
65135,192743
65145,192698
65155,192776
65165,192867
65175,193044
65186,193330
65196,193681
65206,194013
65215,194322
65226,194547
65236,194558
65246,194639
65256,194652
65265,194677
65275,194750
65285,194739
65295,194566
65305,194380
65315,194110
65325,193713
65335,193277
65346,193158
65356,193207
65366,193260
65376,193333
65415,193497
65420,194599
65425,193694
65467,193829
65507,193778
65516,193872
65526,193905
65565,194009
65577,194110
65586,194020
65595,194153
65605,194080
65615,194084
65625,194054
65637,194010
65645,194040
65655,194047
65665,194053
65675,194065
65687,194013
65725,194035
65736,193966
65746,194006
65756,193973
65765,193975
65776,194012
65785,193986
65795,193995
65805,193995
65815,194030
65825,194024
65837,194073
65876,194093
65888,194027
65895,193998
65906,194060
65915,194021
65926,194079
65936,194112
65946,194125
65956,194138
65965,194136
65976,194186
65985,194138
65996,194183
66006,194178
66016,194213
66025,194183
66036,194263
66046,194261
66056,194297
66065,194234
66076,194296
66085,194224
66096,194298
66105,194212
66116,194244
66126,194206
66136,194215
66145,194116
66156,194156
66166,194149
66176,194143
66185,194083
66196,194149
66206,194138
66215,194098
66226,194154
66236,194160
66281,193992
66287,194120
66296,194081
66305,194071
66316,194203
66326,194218
66336,194218
66378,194248
66427,194303
66468,194360
66472,194206
66477,194339
66486,194302
66495,194202
66505,194255
66515,194252
66525,194286
66535,194308
66545,194375
66555,194409
66565,194471
66575,194498
66585,194563
66595,194586
66605,194651
66615,194710
66625,194759
66635,194720
66678,195064
66686,194994
66696,194932
66705,195003
66715,194931
66725,194935
66735,194936
66745,195012
66755,194925
66765,194933
66775,194976
66785,194938
66795,194920
66805,194952
66815,194990
66825,194964
66835,194902
66845,194911
66855,194944
66865,194914
66875,194862
66885,194866
66895,194895
66905,194919
66915,194939
66925,194970
66935,194988
66946,194943
66957,194942
66967,194935
66977,194946
66986,194950
67030,194968
67036,194997
67077,194955
67116,195005
67127,195060
67135,194856
67187,195003
67195,195126
67206,195106
67217,195154
67226,195147
67237,195144
67247,195058
67257,194979
67266,194965
67277,194959
67287,194988
67297,194999
67306,195020
67317,195024
67327,195038
67337,194992
67346,195024
67356,194995
67367,194945
67377,194919
67386,194921
67397,194930
67407,194938
67417,194901
67426,194864
67437,194855
67480,194967
67487,194987
67498,195012
67506,195009
67517,195062
67527,195092
67535,195193
67547,195159
67557,195181
67567,195221
67577,195237
67586,195238
67596,195179
67606,195097
67616,195018
67627,194968
67637,194899
67647,194818
67656,194714
67666,194605
67676,194491
67686,194411
67696,194305
67747,193839
67797,193855
67808,193923
67857,194543
67868,194761
67944,195179
67949,195825
67958,195661
67966,195776
67976,195914
67986,195999
67996,196055
68006,196176
68017,196128
68026,196319
68036,196347
68046,196461
68056,196526
68066,196538
68076,196547
68086,196535
68096,196522
68106,196442
68116,196375
68126,196296
68136,196213
68146,196130
68156,196086
68166,195991
68176,195930
68186,195844
68196,195780
68206,195711
68216,195650
68226,195614
68236,195597
68280,195608
68288,195656
68298,195663
68306,195888
68316,195741
68326,195733
68336,195695
68346,195618
68356,195550
68366,195521
68376,195458
68386,195415
68396,195360
68406,195358
68416,195351
68426,195343
68436,195383
68446,195466
68456,195617
68497,195732
68500,196086
68508,195758
68517,195653
68558,195603
68566,195449
68609,195385
68618,195760
68657,195444
68667,195417
68707,195161
68718,195163
68727,195123
68736,195067
68746,195037
68757,195082
68767,195042
68776,194924
68786,194905
68797,194958
68806,194854
68816,194831
68826,194811
68837,194861
68846,194730
68856,194803
68866,194853
68877,194986
68886,194911
68896,195031
68906,195066
68917,195221
68926,195125
68936,195131
68946,195135
68957,195272
68966,195130
68976,195099
68986,195108
68997,195174
69006,194945
69016,194902
69026,194830
69037,194861
69079,194656
69088,194703
69098,194643
69106,194542
69116,194518
69127,194597
69136,194493
69147,194541
69156,194415
69200,194986
69206,194259
69252,193241
69291,193299
69300,193787
69306,193827
69317,193782
69326,193636
69336,193678
69346,193757
69357,193880
69366,193904
69376,194006
69386,194110
69397,194162
69406,194173
69416,194247
69426,194360
69437,194441
69488,194734
69498,194820
69507,194855
69517,194885
69527,194920
69537,194964
69547,194958
69557,195031
69567,195073
69577,195076
69587,195053
69597,195005
69607,194944
69617,194830
69627,194714
69637,194604
69647,194517
69657,194433
69667,194360
69677,194275
69687,194149
69697,194055
69707,193966
69717,193860
69727,193801
69737,193725
69747,193645
69757,193579
69767,193525
69778,193483
69787,193424
69798,193386
69843,192993
69848,193126
69890,192892
69898,192885
69909,192888
69952,192885
69958,192952
70000,193013
70004,194433
70007,193230
70017,193266
70027,193296
70038,193332
70047,193330
70058,193384
70067,193383
70078,193445
70087,193457
70098,193514
70107,193502
70118,193541
70127,193619
70138,193654
70148,193671
70158,193726
70167,193733
70178,193758
70187,193779
70198,193794
70208,193784
70217,193810
70227,193787
70238,193780
70288,193820
70297,193812
70308,193744
70317,193717
70327,193736
70337,193709
70348,193644
70358,193689
70367,193670
70377,193654
70386,193677
70398,193625
70438,193507
70448,193676
70457,193693
70468,193608
70477,193682
70487,193674
70497,193680
70508,193662
70518,193627
70527,193679
70538,193583
70547,193634
70557,193643
70568,193631
70609,193652
70617,193663
70628,193694
70678,193605
70689,193733
70738,193645
70747,193773
70757,193807
70767,193787
70818,193778
70827,193794
70838,193787
70847,193852
70857,193855
70867,193892
70878,193913
70887,193924
70897,193907
70907,193948
70917,193926
70928,193982
70937,193918
70947,193913
70957,193976
70968,194040
70977,193983
70987,194061
70997,194068
71008,194145
71017,194075
71027,194181
71037,194149
71082,194155
71089,194225
71099,194219
71107,194249
71117,194167
71128,194284
71137,194173
71147,194227
71157,194207
71168,194258
71177,194152
71187,194223
71197,194221
71207,194198
71218,194273
71227,194179
71238,194273
71247,194199
71288,194164
71300,194277
71307,194136
71349,194227
71359,194261
71369,194297
71409,194210
71420,194295
71427,194261
71437,194198
71448,194304
71457,194188
71502,194234
71507,194267
71518,194207
71527,194232
71537,194204
71547,194222
71557,194222
71567,194235
71578,194373
71587,194293
71598,194358
71607,194247
71617,194305
71627,194243
71637,194293
71648,194356
71657,194216
71667,194257
71677,194265
71688,194353
71697,194208
71707,194229
71717,194249
71728,194325
71737,194187
71747,194201
71757,194247
71768,194304
71777,194200
71787,194241
71798,194310
71807,194239
71817,194192
71827,194198
71837,194222
71889,194221
71898,194204
71907,194179
71917,194219
71968,194294
71979,194233
72020,194200
72061,194130
72068,194181
72119,194344
72161,194222
72169,194257
72209,194190
72219,194250
72228,194280
72239,194252
72248,194250
72259,194262
72268,194264
72310,194255
72319,194221
72328,194230
72338,194222
72347,194164
72358,194215
72369,194226
72378,194194
72388,194205
72398,194219
72409,194222
72418,194233
72428,194250
72438,194260
72449,194244
72458,194266
72468,194254
72478,194266
72489,194257
72498,194262
72508,194255
72518,194276
72529,194240
72538,194246
72548,194244
72558,194218
72569,194222
72578,194183
72588,194191
72598,194199
72609,194213
72618,194177
72628,194171
72638,194185
72682,194167
72689,194089
72700,194122
72709,194191
72798,194077
72838,194176
72849,194186
72858,194176
72869,194212
72878,194187
72888,194216
72898,194191
72908,194177
72918,194182
72929,194213
72938,194196
72948,194200
72958,194179
72968,194184
72978,194212
72988,194238
72998,194224
73008,194222
73018,194263
73028,194267
73038,194177
73081,194177
73088,194254
73098,194351
73109,194300
73118,194267
73129,194254
73138,194284
73148,194220
73158,194293
73169,194310
73178,194252
73188,194331
73198,194277
73208,194313
73218,194271
73228,194331
73238,194307
73248,194284
73258,194297
73268,194342
73278,194318
73288,194289
73298,194300
73308,194317
73318,194305
73328,194274
73338,194303
73431,194305
73471,194258
73474,194254
73481,194289
73520,194186
73529,194238
73541,194242
73548,194248
73558,194222
73569,194315
73578,194293
73588,194256
73598,194217
73609,194329
73618,194275
73628,194268
73638,194270
73648,194206
73659,194349
73668,194249
73678,194213
73689,194342
73698,194281
73708,194285
73718,194277
73728,194234
73738,194271
73748,194244
73758,194202
73769,194351
73778,194291
73789,194364
73798,194305
73808,194282
73818,194219
73828,194322
73839,194393
73883,194239
73888,194195
73899,194524
73909,194281
73918,194206
73928,194315
73938,194230
73949,194398
73958,194267
73968,194316
73978,194242
73988,194269
73998,194299
74008,194259
74018,194308
74028,194267
74072,194239
74108,194281
74119,194364
74171,194246
74178,194203
74188,194233
74198,194226
74209,194298
74218,194227
74228,194291
74238,194234
74249,194292
74258,194199
74268,194275
74308,194187
74312,194316
74319,194287
74329,194293
74339,194338
74348,194300
74359,194290
74369,194298
74378,194266
74388,194290
74398,194307
74409,194284
74420,194293
74428,194311
74439,194284
74448,194308
74459,194275
74469,194279
74479,194307
74489,194308
74499,194290
74509,194271
74519,194300
74529,194278
74540,194295
74550,194302
74559,194288
74570,194285
74579,194276
74589,194271
74599,194288
74609,194292
74619,194297
74629,194244
74639,194272
74683,194161
74689,194287
74728,194271
74733,194149
74740,194204
74750,194301
74760,194290
74770,194290
74780,194292
74790,194290
74800,194261
74810,194263
74820,194293
74829,194266
74871,194195
74880,194221
74889,194229
74899,194191
74909,194194
74919,194267
74929,194249
74940,194218
74949,194251
74959,194324
74969,194251
74980,194237
75021,194123
75030,194224
75038,194215
75080,194266
75119,194212
75130,194193
75140,194181
75150,194218
75159,194166
75169,194215
75180,194208
75189,194205
75199,194144
75209,194192
75220,194189
75229,194122
75239,194183
75250,194139
75259,194194
75270,194143
75279,194111
75289,194199
75300,194135
75309,194127
75319,194189
75330,194140
75339,194195
75350,194112
75359,194127
75370,194137
75379,194198
75390,194153
75399,194156
75409,194181
75420,194129
75429,194085
75439,194193
75483,194166
75490,194182
75500,194142
75509,194173
75520,194174
75529,194216
75539,194200
75549,194216
75559,194203
75570,194192
75579,194207
75590,194221
75599,194242
75609,194203
75620,194233
75629,194216
75639,194204
75691,194178
75740,194204
75753,194210
75791,194164
75796,194205
75801,194131
75812,194244
75820,194215
75829,194201
75839,194126
75850,194216
75860,194135
75901,194087
75910,194142
75920,194169
75930,194143
75939,194170
75949,194143
75959,194091
75970,194202
75980,194178
75989,194156
75999,194092
76010,194204
76019,194096
76030,194192
76039,194152
76049,194103
76059,194124
76069,194165
76079,194090
76090,194222
76099,194071
76110,194209
76119,194143
76129,194090
76140,194229
76149,194151
76159,194145
76169,194087
76180,194218
76189,194147
76199,194087
76210,194202
76219,194074
76230,194233
76239,194096
76282,194108
76290,194062
76300,194152
76310,194098
76354,194010
76359,194043
76412,194174
76419,194038
76493,194094
76504,194158
76511,194078
76551,194105
76559,194046
76570,194162
76579,194036
76589,194054
76600,194122
76609,194038
76620,194138
76629,194014
76640,194135
76649,194061
76695,194046
76700,194005
76712,194129
76720,194042
76729,194061
76740,194112
76749,194067
76759,194114
76770,194120
76779,194049
76790,194121
76799,194106
76810,194109
76820,194117
76829,194104
76840,194117
76850,194103
76859,194089
76870,194105
76879,194123
76890,194116
76901,194120
76909,194110
76920,194101
76931,194121
76940,194142
76950,194136
76960,194127
76970,194114
76980,194123
76990,194109
77000,194123
77011,194111
77020,194112
77030,194131
77040,194129
77091,194128
77101,194100
77143,194080
77151,194137
77160,194123
77205,194076
77211,194154
77253,194043
77260,194149
77270,194112
77280,194141
77290,194137
77301,194118
77310,194136
77321,194137
77330,194136
77341,194110
77351,194108
77360,194116
77371,194120
77381,194109
77390,194119
77401,194111
77410,194117
77421,194110
77430,194128
77441,194092
77484,194129
77491,194120
77501,194117
77511,194141
77521,194062
77530,194075
77541,194073
77550,194095
77560,194079
77571,194075
77580,194088
77591,194080
77601,194102
77610,194079
77621,194089
77630,194062
77641,194065
77650,194057
77661,194067
77670,194044
77681,194075
77690,194042
77701,194063
77710,194018
77721,194066
77731,194081
77740,194011
77750,194022
77795,194058
77805,193995
77811,194057
77856,194134
77901,194115
77910,194129
77962,194106
77971,194106
77981,193993
77991,194023
78000,194085
78011,194037
78020,194090
78030,194018
78041,194033
78050,194113
78061,194060
78070,194102
78081,194056
78090,194089
78101,194052
78110,194093
78121,194060
78130,194089
78141,194032
78151,194059
78161,194024
78170,194081
78181,194075
78190,194039
78201,194093
78210,194097
78221,194073
78230,194074
78241,194068
78292,194060
78300,194052
78311,194134
78320,194105
78331,194089
78341,194078
78350,194028
78361,194063
78370,194030
78380,194019
78390,194022
78400,193977
78410,193977
78420,193975
78430,193960
78440,193932
78450,193919
78460,193908
78471,193907
78513,193693
78520,193744
78531,193679
78576,193734
78582,193702
78633,193835
78641,193811
78650,193860
78660,193875
78671,193892
78713,193801
78720,193685
78731,193709
78741,193528
78750,193529
78760,193437
78770,193372
78780,193265
78790,193233
78800,193182
78810,193139
78820,193094
78830,193042
78840,192998
78850,192953
78860,192933
78870,192875
78880,192853
78890,192792
78900,192778
78910,192749
78920,192730
78930,192682
78940,192691
78950,192665
78960,192680
78970,192693
78980,192686
78990,192725
79000,192772
79010,192791
79020,192834
79030,192827
79040,192850
79084,192914
79090,193021
79101,192962
79141,193131
79192,193235
79203,193295
79252,193204
79260,193133
79271,193349
79280,193162
79290,193166
79301,193329
79310,193128
79320,193165
79330,193163
79341,193145
79352,193320
79361,193345
79403,193247
79410,193240
79421,193270
79430,193215
79440,193216
79451,193377
79460,193226
79470,193221
79481,193314
79491,193223
79500,193204
79510,193200
79551,193209
79595,193286
79604,193294
79612,193222
79620,193127
79630,193119
79640,193053
79650,193071
79660,192973
79670,192959
79680,192905
79690,192883
79700,192818
79710,192767
79720,192722
79730,192711
79740,192612
79751,192571
79760,192509
79770,192455
79780,192410
79791,192376
79801,192337
79811,192328
79821,192300
79831,192314
79841,192334
79883,192408
79892,192481
79900,192581
79911,192604
79922,192602
79931,192624
79941,192665
79951,192714
79961,192722
79971,192748
79981,192756
79991,192812
80002,192844
80011,192839
80021,192861
80031,192878
80041,192893
80051,192916
80061,192910
80071,192912
80081,192935
80091,192950
80101,192942
80111,192944
80152,193010
80163,193051
80172,193047
80215,193084
80223,192581
80231,192956
80242,192884
80285,192722
80291,192885
80372,192770
80381,192820
80391,192774
80401,192801
80411,192807
80421,192808
80431,192817
80441,192835
80451,192849
80461,192872
80471,192876
80481,192873
80491,192871
80501,192859
80511,192854
80521,192850
80531,192834
80541,192833
80551,192816
80561,192837
80571,192858
80581,192836
80591,192850
80601,192848
80611,192858
80621,192867
80631,192860
80641,192884
80692,192883
80701,192867
80712,192855
80721,192871
80731,192889
80741,192891
80751,192871
80761,192887
80771,192886
80781,192901
80791,192866
80801,192872
80811,192887
80821,192886
80831,192853
80841,192852
80851,192831
80861,192847
80913,192809
80922,192807
80962,192790
80972,192854
81015,192634
81022,192832
81031,192808
81076,192783
81163,192779
81171,192788
81182,192752
81191,192715
81201,192651
81211,192778
81221,192794
81232,192783
81241,192702
81251,192769
81261,192787
81271,192767
81281,192770
81291,192755
81301,192773
81311,192792
81321,192764
81331,192734
81341,192755
81352,192777
81361,192760
81371,192748
81381,192735
81391,192753
81401,192730
81411,192726
81421,192753
81431,192761
81441,192724
81492,192716
81501,192700
81511,192727
81521,192697
81531,192697
81541,192720
81551,192739
81561,192671
81571,192683
81581,192671
81591,192733
81601,192670
81611,192683
81621,192688
81631,192703
81641,192662
81651,192667
81661,192677
81712,192777
81756,192628
81761,192710
81802,192657
81811,192650
81821,192652
81832,192774
81841,192633
81851,192638
81861,192640
81903,192740
81912,192685
81921,192695
81932,192761
81941,192680
81951,192635
81961,192630
81971,192613
81981,192615
81992,192751
82002,192775
82011,192705
82021,192619
82032,192800
82042,192778
82052,192790
82061,192645
82071,192646
82081,192630
82091,192651
82101,192650
82112,192746
82122,192739
82132,192739
82141,192659
82151,192660
82161,192594
82171,192613
82181,192611
82192,192741
82202,192751
82212,192729
82221,192624
82231,192641
82282,192615
82292,192729
82302,192706
82346,192658
82386,192769
82392,192730
82436,192630
82444,192790
82452,192729
82461,192731
82471,192731
82481,192698
82491,192696
82501,192705
82512,192706
82522,192727
82532,192708
82541,192722
82551,192728
82561,192715
82571,192743
82581,192735
82591,192728
82601,192730
82611,192719
82621,192736
82632,192702
82683,192749
82693,192734
82702,192722
82712,192745
82723,192746
82733,192736
82742,192734
82752,192736
82762,192729
82772,192739
82783,192733
82793,192741
82803,192747
82813,192771
82822,192755
82832,192780
82842,192805
82852,192819
82863,192831
82873,192851
82883,192876
82893,192916
82902,192983
82912,193032
82922,193086
82932,193144
82943,193192
82985,193415
83034,193705
83074,193768
83078,192736
83124,193768
83134,194017
83142,193978
83154,194049
83162,194105
83172,194142
83182,194157
83192,194180
83203,194226
83213,194304
83222,194402
83232,194473
83242,194541
83252,194632
83263,194688
83273,194763
83283,194845
83293,194908
83302,195042
83312,195121
83322,195248
83332,195350
83343,195419
83353,195458
83363,195485
83373,195542
83382,195593
83392,195626
83402,195669
83412,195704
83423,195678
83433,195653
83474,195564
83483,195483
83492,195490
83504,195414
83512,195412
83522,195355
83532,195310
83542,195187
83552,195195
83562,195167
83572,195150
83583,195087
83593,195099
83603,195124
83613,195162
83622,195293
83632,195339
83674,195579
83683,195634
83724,195699
83735,195796
83742,195852
83784,195924
83792,195973
83802,195995
83812,196072
83822,196096
83832,196113
83843,196134
83854,196187
83863,196179
83874,196185
83884,196386
83893,196363
83902,196544
83944,196646
83952,196796
83962,196876
83972,196922
83982,197025
83993,197026
84002,196998
84013,196971
84023,197073
84032,197083
84042,197114
84054,197187
84093,197202
84103,197235
84112,197245
84122,197256
84133,197299
84142,197288
84153,197287
84163,197280
84173,197276
84183,197258
84193,197243
84202,197188
84213,197194
84222,197163
84233,197165
84243,197148
84253,197144
84262,197116
84273,197136
84283,197128
84293,197157
84302,197109
84343,196831
84354,196767
84362,196797
84373,196795
84382,196691
84393,196742
84403,196684
84413,196644
84422,196576
84433,196566
84443,196535
84453,196479
84462,196345
84473,196354
84483,196301
84493,196254
84502,196185
84513,196204
84523,196169
84533,196109
84542,195996
84553,196006
84595,197136
84602,195766
84647,195619
84653,195733
84698,195630
84743,195548
84753,195574
84795,195611
84804,195592
84852,195477
84862,195510
84873,195597
84883,195615
84893,195588
84902,195494
84912,195504
84922,195477
84932,195451
84942,195458
84952,195435
84962,195393
84972,195406
84982,195404
84992,195451
85002,195413
85012,195406
85022,195398
85032,195416
85075,195544
85084,195694
85092,195533
85102,195527
85112,195532
85123,195687
85132,195596
85142,195601
85152,195626
85162,195604
85172,195592
85182,195582
85192,195561
85202,195535
85212,195539
85222,195551
85232,195552
85242,195444
85252,195455
85262,195419
85272,195432
85282,195369
85292,195351
85302,195280
85312,195250
85322,195205
85334,195152
85343,195126
85352,194968
85394,194693
85404,194633
85445,194316
85526,195535
85533,193625
85543,193599
85553,193553
85563,193487
85574,193401
85583,193297
85594,193261
85604,193153
85614,192971
85623,192859
85634,192730
85644,192618
85654,192500
85663,192391
85674,192295
85684,192213
85694,192118
85703,192022
85714,191934
85724,191862
85734,191762
85743,191703
85754,191653
85764,191609
85774,191548
85784,191489
85794,191466
85804,191439
85814,191418
85823,191374
85834,191375
85884,191307
85893,191268
85903,191241
85913,191231
85924,191188
85934,191165
85943,191189
85953,191162
85963,191147
85973,191176
85984,191149
85994,191167
86004,191172
86014,191167
86023,191184
86033,191208
86078,191128
86084,191279
86133,191247
86174,191158
86183,191151
86193,191104
86203,191071
86213,191091
86223,191065
86233,191062
86243,191104
86253,191129
86263,191273
86273,191299
86283,191427
86324,191733
86333,191873
86343,192040
86353,192332
86363,192547
86373,192879
86383,193144
86393,193455
86403,193665
86413,193956
86423,194207
86433,194475
86443,194708
86453,194954
86463,195124
86473,195312
86483,195435
86493,195592
86503,195661
86513,195741
86523,195806
86533,195846
86543,195868
86553,195887
86563,195912
86573,195944
86583,195925
86593,195971
86603,196036
86613,196056
86623,196087
86633,196129
86676,196329
86685,196280
86724,196594
86734,196616
86745,196648
86784,196857
86793,196922
86838,197149
86844,197222
86853,197311
86863,197376
86873,197429
86883,197457
86893,197472
86903,197449
86913,197432
86923,197424
86933,197372
86943,197304
86953,197315
86963,197285
86973,197252
86983,197163
86993,197169
87003,197186
87013,197131
87023,197124
87033,197097
87085,197172
87094,197172
87103,197066
87113,197120
87123,197113
87133,197086
87143,197162
87153,197215
87164,197464
87173,197377
87183,197373
87194,197466
87203,197288
87214,197368
87224,197337
87233,197252
87244,197405
87253,197321
87263,197285
87274,197336
87283,197175
87294,197226
87303,197108
87314,197175
87323,197028
87334,197180
87343,197024
87395,197092
87405,197050
87455,197099
87504,197034
87554,196943
87565,196975
87574,196927
87583,196898
87594,196920
87603,196878
87613,196880
87623,196922
87634,196953
87643,196920
87653,196887
87663,196907
87674,196872
87683,196881
87694,196866
87703,196866
87714,196871
87724,196885
87734,196898
87744,196922
87754,196928
87764,196909
87774,196918
87784,196912
87794,196906
87804,196920
87814,196894
87824,196912
87834,196878
87879,196869
87884,196871
87894,196863
87904,196881
87914,196866
87923,196821
87934,196898
87944,196873
87954,196867
87964,196855
87974,196843
87984,196856
87994,196853
88004,196828
88014,196834
88024,196872
88034,196863
88044,196875
88054,196846
88064,196867
88115,196856
88124,196761
88165,196799
88175,196794
88187,196771
88237,196667
88244,196762
88254,196737
88264,196733
88305,196800
88314,196676
88324,196535
88335,196466
88344,196394
88354,196270
88364,196198
88374,196099
88385,195988
88395,195899
88405,195791
88414,195706
88456,195359
88464,195362
88474,195408
88484,195288
88494,195369
88505,195360
88514,195359
88524,195296
88534,195367
88545,195395
88554,195435
88564,195408
88574,195374
88584,195338
88594,195299
88605,195115
88614,195034
88624,195113
88635,194845
88644,194825
88654,194629
88664,194611
88675,194439
88684,194326
88694,194127
88704,193980
88715,193837
88724,193772
88734,193579
88818,192817
88826,192709
88877,192484
88885,192514
88935,192728
88945,192499
89021,193045
89034,193294
89045,193367
89086,193583
89094,193609
89104,193596
89115,193618
89126,193583
89168,192952
89174,192802
89184,192647
89194,192400
89205,192284
89214,192030
89224,191811
89234,191625
89245,191496
89254,191317
89264,191179
89275,191085
89284,190858
89295,190938
89304,190912
89315,191049
89324,191024
89334,191002
89344,190858
89355,190905
89364,190763
89375,190740
89384,190627
89395,190681
89404,190636
89414,190589
89424,190603
89434,190548
89480,190260
89484,190249
89494,190199
89504,190316
89514,190348
89525,190507
89534,190512
89544,190541
89554,190573
89565,190714
89574,190749
89584,190891
89627,191318
89675,191628
89720,191827
89724,191818
89734,191927
89744,191887
89754,192002
89765,192104
89774,192011
89784,192029
89794,192107
89804,192077
89815,192211
89824,192112
89835,192210
89880,192101
89886,192228
89895,192254
89904,192115
89915,192269
89924,192165
89935,192289
89944,192168
89955,192312
89964,192183
89975,192303
89984,192176
89994,192188
90004,192238
90014,192282
90024,192187
90034,192249
90045,192298
90054,192227
90064,192242
90075,192278
90084,192211
90095,192280
90104,192235
90115,192276
90124,192237
90135,192271
90145,192284
90155,192290
90164,192255
90175,192269
90185,192285
90195,192268
90206,192283
90215,192259
90307,192313
90315,192192
90367,192313
90415,192271
90425,192341
90435,192307
90445,192355
90456,192354
90465,192361
90476,192321
90485,192325
90495,192350
90505,192339
90515,192363
90526,192333
90535,192342
90545,192330
90555,192356
90566,192340
90575,192343
90585,192310
90595,192331
90606,192329
90615,192336
90625,192331
90635,192328
90680,192222
90685,192262
90696,192357
90705,192353
90716,192360
90726,192354
90735,192352
90745,192314
90755,192350
90766,192334
90775,192358
90785,192347
90795,192343
90806,192357
90815,192356
90825,192365
90835,192356
90846,192351
90855,192369
90865,192353
90875,192368
90886,192372
90895,192379
90905,192378
90915,192393
90957,192406
90997,192364
91005,192481
91045,192438
91056,192399
91066,192417
91107,192334
91116,192458
91125,192394
91135,192332
91146,192347
91155,192385
91165,192307
91176,192369
91185,192262
91196,192333
91205,192414
91215,192336
91225,192331
91235,192327
91246,192362
91255,192386
91265,192411
91275,192367
91286,192386
91295,192369
91305,192410
91315,192372
91326,192395
91335,192364
91345,192362
91355,192388
91366,192411
91375,192366
91385,192371
91396,192424
91405,192414
91415,192384
91425,192418
91435,192387
91487,192378
91495,192378
91505,192398
91515,192381
91525,192372
91535,192381
91545,192383
91555,192368
91565,192319
91611,192295
91616,192281
91656,192322
91667,192394
91710,192306
91715,192330
91725,192325
91735,192325
91746,192386
91755,192307
91765,192305
91775,192292
91785,192305
91795,192288
91805,192246
91816,192332
91825,192302
91835,192235
91878,192368
91886,192340
91896,192336
91905,192214
91915,192275
91925,192259
91935,192257
91946,192337
91955,192240
91965,192227
91975,192233
91985,192226
91995,192255
92005,192175
92016,192338
92025,192224
92035,192171
92046,192309
92055,192208
92065,192213
92075,192239
92085,192179
92096,192276
92105,192225
92115,192199
92126,192279
92135,192193
92146,192302
92155,192140
92166,192276
92175,192151
92185,192132
92196,192241
92205,192167
92215,192165
92255,192247
92259,192275
92296,192121
92300,192257
92305,192121
92352,192204
92357,192235
92367,191932
92411,192237
92417,192202
92427,192238
92435,192252
92446,192256
92455,192239
92466,192257
92475,192272
92486,192261
92495,192251
92505,192228
92516,192248
92525,192259
92536,192240
92547,192249
92556,192233
92565,192258
92576,192233
92586,192240
92596,192244
92607,192221
92616,192219
92626,192227
92636,192225
92687,192288
92696,192219
92706,192212
92716,192188
92727,192198
92736,192181
92746,192189
92756,192179
92767,192193
92776,192164
92786,192156
92796,192171
92806,192164
92816,192160
92826,192145
92836,192170
92846,192148
92856,192172
92866,192140
92876,192156
92886,192161
92896,192167
92906,192152
92916,192159
92926,192163
92971,192050
92978,192164
92988,192216
92995,192089
93007,192180
93015,192089
93026,192165
93036,192153
93046,192159
93057,192176
93066,192167
93077,192192
93086,192224
93127,192169
93136,192120
93146,192222
93156,192171
93166,192173
93177,192162
93186,192190
93196,192167
93207,192143
93217,192157
93227,192155
93269,192103
93317,192160
93327,192208
93369,192330
93377,192172
93418,192156
93428,192124
93468,192211
93476,192176
93486,192154
93496,192042
93506,192079
93516,192044
93526,192114
93536,192027
93546,192040
93556,192013
93566,192100
93612,192141
93628,192128
93636,192047
93646,192036
93657,191993
93667,192017
93676,192073
93686,191983
93696,192028
93706,192048
93716,192005
93726,192027
93736,192019
93746,192012
93757,192047
93766,192042
93776,192012
93787,192058
93796,192053
93806,192031
93816,192053
93826,192075
93836,192026
93886,191963
93899,191976
93906,192071
93917,192079
93926,192057
93936,192006
93947,192081
93956,192066
93966,192009
94008,192024
94017,192077
94060,191921
94098,192054
94107,192028
94116,192020
94126,191966
94136,192029
94146,191953
94157,192084
94166,192016
94176,192007
94186,192024
94196,191937
94207,192085
94216,192006
94226,192026
94236,191962
94280,191946
94287,192025
94298,191933
94306,192007
94316,192007
94326,191945
94336,191993
94346,192022
94357,192075
94366,192010
94376,191954
94387,192085
94396,191989
94406,191936
94416,191973
94426,191974
94436,191921
94447,192108
94456,191964
94466,191933
94476,191900
94487,192051
94496,191911
94506,191949
94516,191915
94526,191935
94536,191921
94546,191914
94556,191936
94566,191932
94576,191947
94586,191912
94596,191909
94607,192021
94647,191995
94657,191990
94700,192002
94708,192000
94749,192020
94757,192000
94807,192013
94816,191929
94827,192019
94837,192012
94846,191901
94856,191984
94867,191998
94876,191986
94887,191992
94896,191983
94907,192001
94916,191937
94927,191985
94936,191974
94946,191946
94957,191993
94966,191967
94977,191962
94987,191960
94997,191978
95006,191983
95017,191978
95027,191970
95037,191956
95079,191913
95088,191905
95097,192022
95107,192000
95117,191981
95128,191984
95137,191967
95147,191967
95158,191999
95167,191963
95177,191970
95187,191974
95197,191980
95207,191975
95218,191984
95227,191958
95238,191970
95247,191964
95257,191951
95267,191937
95277,191955
95288,191975
95297,191971
95308,191951
95350,191970
95358,191986
95410,191880
95416,191929
95458,191962
95509,191963
95517,191970
95528,192032
95538,191969
95547,191969
95557,191994
95568,191959
95577,191988
95588,191956
95597,191976
95607,191988
95617,191966
95627,191953
95637,191989
95648,191992
95657,191994
95668,192003
95677,191971
95687,192008
95698,192013
95707,191941
95717,192008
95728,191989
95737,192020
95747,191920
95757,191906
95767,192019
95778,191980
95787,191946
95797,191973
95807,192020
95818,191956
95827,191944
95837,191946
95888,192034
95898,192027
95907,192016
95918,191991
95927,191999
95937,192040
95947,192020
95958,192014
95967,192058
95978,192013
95987,192026
95998,192003
96007,192039
96018,192002
96063,192021
96070,191942
96078,192049
96118,191970
96129,192035
96168,191972
96178,192006
96189,191991
96197,192001
96208,192035
96217,191967
96228,192030
96238,192027
96247,191999
96258,192038
96267,192007
96311,192021
96320,191846
96329,191976
96337,191964
96347,191989
96358,192030
96368,192031
96377,191916
96388,192018
96397,191993
96407,191993
96418,192026
96427,192011
96438,192011
96447,191966
96458,192029
96467,191961
96478,192021
96487,191984
96498,192029
96507,191955
96518,192010
96527,191952
96538,192004
96547,191952
96557,191969
96568,191997
96577,191884
96588,192008
96597,191942
96608,192005
96617,191889
96628,192021
96637,191956
96682,191928
96689,192010
96729,191999
96739,191964
96748,191858
96757,191953
96809,191932
96818,191849
96868,191865
96878,191774
96918,191840
96927,191768
96938,191836
96947,191750
96958,191830
96967,191750
96978,191825
96987,191685
96998,191816
97007,191708
97017,191754
97028,191837
97037,191721
97083,191709
97088,191785
97098,191779
97107,191739
97117,191800
97127,191775
97137,191817
97147,191730
97157,191755
97167,191757
97177,191791
97187,191769
97197,191793
97207,191769
97217,191804
97227,191797
97238,191796
97249,191790
97258,191783
97269,191794
97278,191778
97289,191781
97298,191759
97309,191773
97318,191747
97329,191782
97338,191733
97348,191735
97359,191755
97368,191745
97378,191753
97389,191728
97398,191702
97409,191732
97418,191717
97460,191742
97469,191648
97518,191665
97528,191867
97538,191664
97549,191645
97558,191665
97569,191634
97578,191620
97589,191655
97597,191695
97608,191594
97618,191665
97663,191668
97670,191483
97678,191664
97689,191646
97699,191640
97709,191679
97719,191655
97727,191732
97738,191584
97748,191691
97759,191636
97767,191701
97779,191647
97831,191611
97838,191665
97921,191618
97931,191409
97938,191601
97988,191622
98000,191637
98008,191575
98018,191481
98029,191544
98038,191563
98049,191482
98058,191558
98069,191515
98078,191573
98089,191542
98098,191588
98109,191502
98119,191536
98128,191566
98138,191519
98148,191564
98159,191557
98168,191570
98178,191550
98188,191531
98198,191575
98209,191580
98218,191582
98228,191591
98238,191600
98290,191593
98300,191574
98308,191569
98318,191627
98328,191623
98338,191571
98348,191639
98358,191641
98368,191641
98378,191659
98388,191669
98398,191686
98408,191685
98418,191615
98428,191685
98473,191582
98479,191664
98570,191435
98614,191433
98619,191524
98628,191533
98638,191483
98648,191545
98658,191542
98668,191529
98678,191534
98688,191518
98698,191511
98708,191532
98718,191536
98760,191507
98770,191570
98780,191449
98788,191520
98798,191499
98808,191486
98818,191447
98828,191418
98838,191484
98848,191484
98859,191577
98868,191463
98878,191473
98888,191457
98898,191523
98908,191462
98918,191465
98928,191459
98938,191448
98949,191585
98958,191438
98968,191446
98978,191460
98988,191395
98998,191434
99008,191434
99018,191443
99028,191426
99038,191446
99083,191352
99090,191563
99100,191418
99108,191420
99118,191405
99160,191482
99202,191318
99210,191551
99253,191364
99259,191441
99269,191477
99279,191489
99288,191467
99298,191519
99309,191492
99319,191483
99329,191487
99340,191478
99348,191491
99359,191451
99369,191459
99379,191446
99389,191440
99399,191452
99409,191447
99419,191431
99429,191438
99439,191421
99483,191240
99490,191381
99499,191417
99509,191395
99519,191395
99529,191366
99539,191398
99549,191345
99559,191352
99569,191349
99579,191358
99589,191328
99599,191329
99610,191368
99619,191343
99629,191315
99639,191327
99649,191338
99659,191341
99669,191323
99679,191317
99690,191295
99699,191305
99709,191292
99719,191274
99729,191286
99739,191302
99750,191293
99759,191284
99810,191261
99850,191290
99901,191237
99911,191279
99919,191127
99961,191242
99970,191221
99979,191247
99989,191157
99999,191247
100009,191182
100019,191249
100029,191175
100039,191177
100049,191194
100059,191254
100069,191228
100079,191232
100089,191220
100099,191253
100109,191236
100119,191239
100129,191261
100139,191258
100150,191237
100159,191294
100169,191292
100179,191295
100189,191276
100199,191298
100209,191286
100219,191248
100229,191301
100239,191301
100283,191189
100289,191319
100300,191292
100309,191283
100319,191312
100329,191336
100339,191349
100350,191335
100360,191334
100369,191318
100379,191293
100389,191309
100399,191331
100409,191274
100419,191296
100430,191363
100439,191312
100449,191267
100459,191282
100469,191310
100510,191291
100550,191180
100560,191248
100569,191288
100609,191289
100613,191275
100622,191269
100630,191276
100640,191342
100650,191320
100693,191214
100698,191158
100704,191349
100710,191344
100720,191336
100729,191279
100739,191205
100749,191282
100759,191226
100769,191222
100779,191218
100789,191237
100799,191216
100809,191206
100819,191213
100830,191322
100839,191250
100849,191195
100859,191218
100869,191243
100879,191180
100889,191196
100899,191186
100909,191263
100919,191186
100929,191178
100939,191201
100949,191196
100959,191271
100969,191198
100979,191202
100989,191257
100999,191205
101009,191171
101019,191191
101029,191246
101039,191159
101091,191258
101100,191197
101109,191166
101120,191253
101129,191173
101173,191076
101181,191243
101222,191224
101230,191251
101320,191120
101331,191158
101371,191309
101379,191220
101390,191210
101400,191221
101410,191208
101420,191224
101430,191220
101440,191220
101450,191212
101460,191203
101469,191216
101520,191260
101532,191233
101540,191229
101550,191211
101560,191214
101571,191227
101580,191243
101591,191221
101600,191260
101610,191220
101620,191223
101630,191229
101640,191203
101650,191208
101660,191215
101670,191228
101680,191217
101690,191218
101700,191232
101710,191246
101720,191231
101730,191234
101740,191233
101750,191224
101760,191231
101770,191250
101780,191216
101790,191231
101800,191238
101810,191229
101820,191207
101830,191232
101840,191243
101885,191232
101890,191093
101940,191217
101951,191205
102001,191207
102011,191192
102020,191143
102030,191133
102041,191192
102051,191209
102060,191196
102071,191199
102081,191184
102091,191202
102101,191190
102111,191212
102153,190934
102161,191211
102170,191203
102181,191229
102190,191195
102200,191196
102210,191208
102220,191215
102231,191129
102240,191226
102251,191198
102262,191136
102314,191171
102361,191195
102371,191180
102380,191198
102390,191198
102400,191194
102411,191158
102420,191122
102430,191126
102440,191173
102450,191155
102460,191156
102470,191090
102480,191172
102490,191157
102500,191160
102510,191147
102520,191173
102530,191199
102540,191199
102551,191193
102560,191174
102570,191179
102580,191204
102590,191193
102600,191185
102610,191178
102621,191228
102630,191192
102640,191189
102683,191192
102692,191186
102702,191212
102710,191238
102720,191173
102730,191163
102740,191204
102750,191202
102760,191185
102770,191147
102780,191146
102791,191203
102801,191206
102811,191198
102821,191196
102830,191103
102840,191102
102850,191092
102860,191085
102911,191126
102921,191056
102964,191068
102971,191137
103017,191056
103020,191067
103031,191200
103041,191178
103051,191163
103061,191169
103070,191063
103114,191152
103121,191062
103131,191018
103140,191055
103151,191191
103161,191177
103171,191186
103181,191185
103190,191046
103200,191063
103210,191055
103220,191057
103231,191178
103241,191191
103251,191181
103261,191182
103270,191023
103280,191016
103290,191016
103300,191038
103311,191175
103321,191164
103331,191173
103341,191154
103350,191052
103360,191023
103370,191026
103380,191043
103391,191145
103401,191126
103411,191117
103421,191125
103430,190993
103440,190982
103484,191130
103492,191099
103500,191310
103511,191109
103520,190989
103571,191023
103581,191035
103621,191116
103630,191038
103681,191069
103691,191083
103701,191078
103711,191093
103721,191080
103731,191092
103741,191079
103750,190984
103760,191016
103771,191084
103781,191092
103790,191034
103801,191103
103811,191092
103821,191096
103830,191083
103841,191109
103892,191103
103902,191096
103911,191155
103922,191095
103930,191084
103941,191108
103951,191096
103961,191100
103971,191096
103981,191090
103992,191107
104002,191100
104012,191104
104021,191101
104031,191088
104041,191114
104051,191082
104061,191097
104072,191110
104082,191100
104092,191088
104101,191114
104111,191081
104121,191090
104131,191091
104141,191090
104152,191108
104161,191108
104171,191107
104181,191106
104191,191099
104233,191194
104241,191161
104251,191163
104293,191081
104302,191075
104353,191055
104361,191087
104411,191018
104423,191060
104432,191028
104442,191033
104452,191030
104462,191026
104472,191024
104482,191030
104492,191038
104501,191053
104511,191064
104521,191056
104531,191048
104541,191047
104552,191035
104561,191062
104571,191055
104581,191048
104591,191062
104601,191070
104611,191069
104621,191055
104632,191067
104642,191073
104687,191077
104691,191054
104701,191141
104711,191106
104721,191029
104732,191072
104741,191106
104751,191126
104761,191120
104771,191131
104781,191121
104792,191059
104802,191057
104812,191055
104821,191114
104832,191051
104842,191035
104851,191033
104862,191056
104871,191099
104882,191042
104892,191072
104901,191140
104912,191044
104922,191087
104965,191183
104972,191137
104981,191149
105032,191132
105042,191111
105083,191120
105124,191135
105131,191056
105175,191035
105182,191159
105232,190984
105242,191151
105251,191181
105262,191183
105271,191139
105282,191189
105292,191178
105301,191173
105312,191180
105322,191175
105332,191176
105341,191140
105351,191157
105362,191190
105372,191182
105381,191140
105392,191169
105402,191148
105412,191143
105422,191131
105432,191136
105442,191132
105483,191098
105493,191109
105502,191042
105512,191127
105522,191104
105532,191118
105542,191107
105551,191040
105561,191038
105571,191040
105582,191095
105591,191046
105602,191090
105612,191103
105621,191032
105632,191101
105642,191089
105652,191092
105661,190999
105672,191132
105682,191142
105692,191118
105701,190983
105712,191118
105722,191128
105732,191125
105783,191082
105793,190944
105842,191058
105893,190896
105943,191066
105953,191025
105961,190960
105971,190917
105981,190929
105991,190864
106001,190881
106011,190903
106021,190904
106031,190883
106041,190910
106051,190920
106061,190945
106071,190921
106081,190953
106091,190951
106101,190974
106111,190948
106121,190977
106131,190975
106141,190960
106152,190986
106162,190989
106171,190982
106181,190993
106192,190982
106203,190997
106213,191003
106222,191006
106233,191002
106243,190998
106285,190895
106292,190976
106302,190953
106313,191056
106323,190974
106333,190967
106342,190963
106353,190962
106363,190959
106373,190970
106382,190923
106393,190957
106403,190951
106413,190961
106422,190931
106432,190921
106443,190969
106486,190975
106494,190923
106542,190967
106582,190963
106624,190963
106635,190940
106642,190959
106652,190955
106662,190913
106672,190947
106682,191011
106692,190960
106703,190963
106712,190946
106722,190961
106732,190951
106783,190943
106792,190958
106802,190956
106812,190967
106822,190939
106832,191016
106843,190941
106852,190899
106862,190955
106873,190960
106916,190965
106925,190864
106934,190949
106943,190950
106952,190857
106962,190844
106972,190817
106982,190846
106992,190869
107002,190887
107012,190890
107022,190892
107032,190906
107043,190869
107052,190981
107062,190934
107072,190938
107082,191007
107092,190979
107102,190991
107112,190957
107122,190963
107132,190995
107143,190976
107184,190969
107192,190948
107202,190959
107212,190963
107222,190966
107232,190960
107242,190990
107252,190983
107262,190976
107272,190979
107282,190982
107292,190984
107302,190935
107312,190981
107322,190987
107332,190987
107342,190985
107352,191011
107362,190994
107372,190975
107382,190943
107425,190991
107473,190908
107482,190993
107533,190974
107578,191008
107587,190937
107592,190994
107603,190990
107612,190894
107622,190988
107632,190961
107642,190957
107652,190965
107662,190984
107672,190975
107682,190964
107692,190972
107702,190959
107712,190981
107722,190967
107732,190988
107742,190990
107752,190994
107762,190997
107772,191003
107782,190979
107792,190999
107802,190987
107812,191011
107822,190935
107832,191009
107884,190928
107893,190950
107902,190968
107912,190889
107922,190928
107932,190959
107942,190904
107952,190934
107963,191048
107972,190916
107982,190904
107993,191029
108002,190905
108012,190901
108022,190883
108033,191000
108042,190873
108053,190968
108062,190883
108073,190961
108082,190857
108093,190962
108102,190903
108144,190948
108194,190931
108203,190944
108254,190940
108298,190950
108302,190813
108305,190888
108313,190932
108324,190920
108334,190938
108343,190926
108353,190941
108363,190937
108373,190928
108383,190912
108393,190935
108403,190914
108413,190946
108423,190944
108433,190930
108443,190917
108453,190925
108463,190938
108473,190917
108483,190923
108493,190910
108503,190916
108513,190921
108523,190914
108533,190913
108543,190909
108553,190863
108563,190900
108573,190882
108583,190911
108593,190889
108603,190890
108613,190855
108623,190887
108633,190885
108683,190941
108695,190967
108703,190898
108714,190902
108723,190887
108733,190880
108743,190868
108753,190869
108763,190885
108773,190881
108783,190879
108793,190864
108803,190864
108813,190881
108823,190885
108867,190852
108914,190951
108964,190861
109008,190848
109015,190897
109056,190711
109064,190845
109073,190817
109084,190855
109093,190838
109145,190769
109154,190864
109163,190793
109173,190882
109183,190838
109194,190794
109203,190833
109214,190774
109223,190765
109233,190754
109244,190763
109253,190799
109263,190827
109274,190769
109283,190875
109294,190763
109303,190837
109314,190809
109323,190865
109334,190793
109344,190815
109353,190857
109364,190839
109373,190873
109383,190853
109394,190820
109403,190876
109414,190820
109423,190865
109434,190863
109478,190865
109483,190513
109494,190840
109503,190809
109514,190873
109523,190838
109533,190803
109543,190851
109554,190844
109594,190815
109638,190821
109683,190824
109694,190902
109703,190851
109714,190903
109723,190849
109734,190889
109743,190805
109753,190792
109764,190884
109773,190851
109783,190829
109793,190840
109804,190893
109813,190845
109823,190845
109834,190888
109886,191036
109895,190833
109904,190877
109914,190776
109923,190843
109933,190854
109943,190819
109954,190889
109963,190829
109973,190845
109983,190839
109994,190899
110003,190850
110014,190930
110023,190834
110034,190923
110043,190830
110054,190918
110063,190835
110074,190903
110083,190832
110093,190840
110103,190822
110113,190816
110124,190913
110133,190807
110143,190835
110153,190833
110164,190913
110173,190775
110183,190759
110225,190809
110314,190872
110324,190809
110335,190939
110385,190805
110393,190822
110403,190803
110414,190888
110423,190847
110434,190898
110443,190837
110454,190901
110463,190881
110474,190895
110483,190917
110494,190887
110503,190900
110514,190888
110523,190863
110533,190859
110543,190863
110554,190867
110563,190880
110573,190847
110584,190878
110593,190878
110604,190868
110614,190845
110624,190861
110635,190876
110675,190759
110684,190844
110696,190876
110704,190935
110714,190890
110724,190869
110734,190878
110744,190879
110754,190880
110765,190885
110774,190881
110784,190856
110795,190872
110804,190857
110815,190861
110824,190862
110835,190870
110845,190877
110854,190857
110864,190834
110875,190862
110884,190858
110927,190901
110937,190845
110944,190863
110992,190810
110996,190759
111046,190858
111095,190902
111106,190804
111114,190869
111126,190840
111135,190876
111144,190854
111154,190849
111164,190871
111174,190863
111186,190846
111195,190860
111204,190828
111215,190857
111254,190851
111264,190860
111274,190851
111284,190867
111294,190874
111303,190898
111315,190849
111325,190841
111334,190793
111345,190881
111355,190821
111364,190885
111374,190861
111384,190824
111394,190762
111405,190779
111414,190842
111424,190849
111434,190768
111444,190822
111454,190766
111464,190831
111475,190781
111484,190846
111495,190742
111504,190756
111515,190811
111524,190824
111535,190766
111580,190717
111589,190848
111596,190824
111668,190841
111676,190814
111689,190813
111695,190787
111738,190659
111745,190805
111755,190758
111796,190818
111804,190782
111815,190851
111824,190828
111835,190880
111844,190837
111855,190860
111864,190815
111875,190881
111884,190835
111895,190893
111939,190826
111944,190788
111954,190825
111964,190799
111974,190811
111985,190865
111994,190786
112005,190866
112014,190796
112024,190802
112034,190808
112045,190845
112054,190803
112064,190787
112075,190855
112084,190813
112095,190863
112104,190784
112114,190810
112125,190864
112134,190810
112145,190869
112154,190811
112164,190798
112174,190789
112184,190796
112194,190784
112204,190782
112214,190782
112224,190763
112234,190765
112279,190714
112284,190710
112295,190843
112304,190808
112346,190738
112350,190866
112356,190778
112365,190717
112416,190698
112425,190769
112468,190720
112475,190775
112484,190781
112494,190671
112504,190684
112515,190781
112524,190695
112535,190789
112545,190772
112554,190683
112564,190754
112574,190725
112584,190688
112594,190771
112604,190770
112614,190719
112624,190688
112634,190739
112677,190808
112686,190745
112695,190778
112704,190726
112715,190773
112724,190778
112734,190749
112745,190767
112754,190785
112765,190769
112774,190784
112786,190748
112795,190760
112805,190789
112815,190759
112825,190738
112835,190773
112846,190752
112855,190779
112865,190741
112875,190769
112886,190752
112895,190745
112905,190739
112915,190759
112926,190759
112935,190759
112945,190737
112955,190780
112966,190756
112975,190760
112985,190724
113031,190800
113036,190768
113045,190547
113088,190706
113137,190788
113147,190797
113155,190874
113199,190839
113239,190750
113246,190782
113256,190855
113296,190785
113306,190772
113315,190775
113325,190764
113336,190779
113346,190776
113355,190743
113365,190758
113376,190778
113385,190720
113396,190752
113405,190743
113415,190709
113425,190693
113435,190695
113486,190786
113495,190668
113506,190712
113515,190788
113525,190789
113536,190721
113545,190709
113556,190752
113565,190813
113575,190691
113585,190846
113595,190740
113605,190808
113616,190778
113625,190777
113635,190807
113646,190824
113655,190796
113665,190833
113675,190776
113685,190789
113695,190782
113705,190835
113715,190814
113725,190787
113736,190828
113746,190828
113755,190855
113765,190814
113775,190856
113785,190794
113796,190845
113838,190732
113847,190870
113896,190792
113936,190764
113946,190766
113988,190791
113996,190821
114005,190773
114015,190763
114025,190789
114035,190771
114046,190817
114055,190701
114065,190782
114075,190749
114085,190737
114095,190753
114105,190752
114115,190748
114125,190694
114136,190819
114146,190813
114155,190726
114166,190836
114175,190734
114185,190832
114195,190851
114205,190834
114216,190985
114225,190943
114235,190911
114278,190967
114286,191002
114295,191025
114306,191076
114315,190995
114325,190957
114335,190942
114345,190922
114355,190952
114365,190929
114376,191062
114385,190939
114395,190897
114406,191055
114415,190866
114425,190916
114436,191015
114445,190922
114455,190932
114465,190887
114475,190927
114485,190898
114538,190917
114547,190925
114555,190962
114598,190966
114605,190841
114649,190945
114658,191014
114700,191049
114706,190926
114715,191000
114726,191018
114735,191019
114746,191022
114755,191061
114766,191054
114775,191114
114786,191157
114795,191196
114805,191277
114816,191288
114826,191291
114835,191324
114846,191285
114856,191337
114866,191313
114876,191339
114886,191316
114896,191346
114906,191344
114916,191378
114926,191340
114936,191350
114946,191335
114956,191356
114966,191296
114976,191324
114986,191311
114996,191289
115006,191265
115016,191269
115026,191235
115036,191248
115087,191227
115096,191314
115106,191299
115116,191279
115127,191246
115136,191222
115146,191193
115156,191182
115207,191288
115251,191154
115259,191165
115299,191193
115307,191221
115357,191294
115366,191304
115376,191293
115386,191311
115396,191313
115406,191318
115416,191293
115426,191284
115436,191264
115446,191284
115456,191238
115467,191279
115508,191183
115518,191236
115526,191242
115537,191215
115546,191155
115556,191188
115566,191224
115576,191167
115586,191163
115596,191120
115606,191186
115616,191101
115626,191145
115636,191097
115646,191165
115656,191043
115666,191135
115676,191079
115686,191207
115696,191083
115706,191204
115716,191135
115726,191226
115736,191129
115746,191162
115756,191256
115766,191185
115776,191227
115786,191271
115796,191206
115806,191222
115816,191174
115826,191214
115836,191216
115881,191092
115886,191073
115896,191057
115907,191082
115916,191043
115926,191010
115937,191026
115946,191007
115957,191009
115967,191023
115977,191032
116026,191036
116037,191024
116047,191140
116057,191184
116067,191125
116077,191175
116086,191129
116097,191178
116107,191205
116117,191196
116167,191173
116218,191009
116227,191053
116272,191013
116277,191171
116287,191089
116296,191166
116307,191226
116316,191067
116327,191187
116336,191127
116346,191120
116356,191044
116367,191154
116417,190992
116426,190989
116436,190951
116446,191045
116456,191023
116466,191034
116476,190959
116486,191043
116496,191050
116506,191013
116516,191012
116527,191141
116536,191020
116546,191065
116556,190991
116567,191086
116576,190998
116586,190983
116597,191080
116606,190992
116616,190910
116627,191077
116636,190897
116680,190978
116687,190913
116697,190925
116706,190804
116716,190782
116726,190790
116736,190777
116746,190763
116756,190744
116767,190810
116776,190668
116786,190623
116831,190683
116869,190655
116880,190991
116887,190618
116957,190752
116960,190910
116966,190689
116978,190643
117018,190759
117027,190667
117037,190651
117048,190649
117057,190662
117068,190662
117108,190741
117118,190727
117127,190746
117137,190722
117147,190711
117158,190738
117167,190695
117177,190677
117187,190663
117197,190680
117208,190681
117217,190683
117228,190645
117237,190645
117247,190663
117258,190647
117267,190650
117277,190622
117287,190647
117298,190598
117307,190627
117317,190628
117328,190619
117337,190601
117347,190597
117358,190586
117367,190559
117377,190543
117387,190538
117398,190513
117407,190511
117417,190511
117427,190508
117437,190518
117479,190738
117488,190529
117497,190495
117507,190505
117517,190503
117558,190497
117599,190329
117639,190525
117647,190464
117657,190527
117668,190532
117677,190463
117687,190557
117698,190506
117707,190479
117717,190572
117728,190501
117737,190601
117747,190588
117757,190461
117767,190559
117778,190511
117788,190500
117798,190517
117807,190559
117818,190542
117827,190534
117837,190566
117879,190465
117889,190542
117897,190580
117907,190548
117918,190585
117927,190599
117937,190623
117947,190600
117957,190562
117968,190595
117977,190581
117987,190561
117997,190549
118008,190613
118017,190546
118027,190621
118037,190556
118048,190614
118057,190559
118068,190618
118077,190621
118087,190539
118098,190622
118108,190643
118117,190588
118127,190526
118138,190609
118181,190572
118188,190556
118228,190583
118268,190587
118272,190599
118278,190610
118318,190605
118329,190605
118337,190547
118347,190616
118358,190672
118367,190608
118378,190696
118387,190615
118398,190691
118407,190653
118418,190733
118427,190656
118438,190738
118447,190685
118457,190673
118468,190753
118477,190675
118488,190746
118497,190619
118508,190761
118517,190654
118528,190760
118537,190624
118547,190620
118558,190730
118567,190620
118578,190741
118587,190632
118598,190696
118607,190552
118618,190656
118627,190547
118638,190620
118681,190447
118689,190512
118697,190337
118707,190341
118718,190414
118727,190325
118738,190352
118747,190224
118758,190331
118767,190226
118778,190299
118787,190212
118798,190303
118807,190289
118818,190292
118863,190222
118869,190321
118909,190319
118917,190276
118960,190353
118969,190287
118979,190361
118989,190364
118998,190338
119008,190331
119018,190352
119028,190315
119038,190320
119049,190338
119058,190310
119068,190354
119109,190320
119118,190323
119129,190310
119138,190269
119148,190307
119158,190306
119168,190252
119178,190265
119189,190273
119198,190236
119208,190263
119218,190268
119228,190245
119238,190271
119249,190245
119258,190226
119268,190232
119278,190242
119289,190227
119298,190217
119308,190200
119318,190231
119329,190189
119338,190170
119348,190150
119358,190147
119368,190183
119379,190167
119389,190161
119398,190142
119409,190132
119418,190083
119429,190105
119438,190110
119511,190067
119515,190252
119520,190109
119531,190107
119581,190096
119591,190031
119633,190099
119650,190085
119658,190088
119668,190061
119679,190082
119689,190060
119698,190027
119709,190065
119718,190027
119728,190105
119738,190017
119748,190069
119759,190035
119768,190055
119778,189994
119789,190033
119798,190053
119809,190021
119818,190093
119829,190051
119838,190065
119883,189986
119889,190068
119898,190051
119908,190034
119919,190040
119928,190080
119938,190036
119949,190072
119958,190077
119969,190069
119978,190085
119989,190095
119998,190102
120009,190084
120018,190101
120029,190094
120039,190095
120048,190104
120058,190062
120069,190090
120078,190102
120089,190090
120098,190070
120109,190092
120118,190079
120129,190090
120138,190059
120148,190075
120192,190024
120201,189994
120208,190062
120251,190080
120258,189986
120309,190095
120318,190024
120329,190111
120339,190057
120349,190082
120358,190096
120369,190114
120379,190127
120389,190139
120398,190030
120449,190149
120459,190161
120469,190169
120479,190036
120489,190163
120499,190069
120509,190097
120519,190208
120529,190174
120538,190068
120548,190152
120559,190058
120609,190038
120619,190137
120664,190196
120668,190066
120678,190061
120689,190178
120698,190056
120708,190057
120718,190031
120728,190049
120738,190029
120748,190058
120759,190042
120803,190062
120810,190152
120818,190025
120829,190089
120838,189953
120848,189983
120858,189971
120868,190001
120878,189966
120888,189987
120898,189978
120908,190005
120918,189993
120928,190012
120938,190011
120948,190090
120958,190044
120968,190037
120978,190047
120988,190053
120998,190029
121008,190047
121018,190034
121028,190068
121038,190069
121083,189970
121089,190106
121098,190111
121108,190098
121120,190097
121130,190095
121140,190096
121149,190106
121160,190106
121211,190123
121218,190135
121261,190126
121271,190122
121358,190041
121369,190114
121379,190088
121389,190123
121400,190109
121409,190125
121420,190114
121429,190127
121440,190129
121449,190137
121460,190104
121469,190136
121513,190318
121520,190138
121529,190129
121540,190125
121549,190096
121560,190126
121569,190140
121580,190162
121589,190122
121600,190131
121609,190174
121620,190146
121629,190154
121640,190128
121649,190142
121660,190128
121669,190141
121680,190124
121689,190128
121700,190129
121709,190132
121720,190166
121729,190152
121739,190140
121749,190138
121760,190162
121769,190119
121780,190152
121789,190172
121800,190146
121809,190079
121820,190135
121829,190060
121840,190112
121920,190121
121924,190162
121932,190108
121940,190056
121992,190057
122000,190182
122050,190051
122059,190063
122069,190142
122079,190124
122089,190128
122099,190078
122109,190126
122119,190137
122129,190131
122139,190130
122150,190150
122159,190154
122169,190126
122179,190149
122189,190150
122199,190158
122209,190144
122219,190097
122229,190137
122239,190151
122290,190111
122300,190002
122309,190133
122319,190136
122329,190128
122339,190070
122350,190145
122359,190121
122369,190106
122379,190057
122389,190122
122399,190108
122409,190101
122419,190032
122429,190093
122439,190101
122449,190095
122459,190036
122469,190097
122479,190101
122489,190102
122499,190048
122509,190111
122519,190097
122529,190103
122539,190025
122549,190098
122591,190129
122599,190080
122640,190083
122652,190152
122693,190001
122701,190156
122743,190032
122751,190138
122759,190150
122769,190071
122779,190030
122789,190107
122799,190124
122809,190071
122819,190027
122829,190051
122839,190067
122849,190073
122859,190010
122869,190040
122879,190033
122889,190037
122899,190012
122909,190052
122919,190051
122929,190037
122939,189997
122949,190011
122959,189998
122969,190009
122979,190013
122989,190026
122999,190008
123009,190023
123019,190028
123029,189996
123039,190005
123084,190033
123089,190095
123099,190065
123109,190108
123119,190114
123129,190134
123139,190098
123149,190132
123159,190125
123169,190158
123179,190144
123190,190151
123200,190162
123210,190157
123220,190184
123230,190177
123240,190178
123250,190183
123301,190165
123309,190145
123320,190141
123371,190151
123381,190120
123430,190161
123442,190138
123450,190130
123460,190113
123470,190109
123481,190197
123525,190038
123531,190133
123540,190129
123550,190113
123560,190102
123570,190120
123580,190119
123590,190138
123600,190087
123610,190116
123620,190114
123630,190118
123640,190117
123650,190114
123660,190121
123670,190108
123680,190124
123690,190127
123700,190131
123710,190130
123720,190147
123730,190164
123740,190139
123750,190155
123760,190140
123770,190151
123780,190158
123790,190166
123800,190132
123810,190140
123820,190147
123830,190123
123840,190127
123882,190062
123891,190143
123900,190241
123910,190189
123920,190135
123930,190148
123940,190150
123986,190201
123991,190140
124032,190207
124035,190127
124072,190210
124083,190197
124093,190199
124141,190215
124152,190212
124200,190211
124210,190265
124220,190256
124230,190268
124240,190270
124283,190244
124291,190325
124300,190230
124311,190268
124320,190245
124331,190310
124340,190257
124351,190309
124360,190256
124370,190231
124380,190257
124390,190240
124400,190216
124411,190300
124420,190270
124430,190258
124440,190205
124450,190228
124460,190255
124470,190250
124480,190209
124490,190221
124500,190236
124510,190255
124520,190210
124530,190204
124540,190258
124551,190314
124560,190244
124570,190214
124580,190292
124590,190268
124600,190186
124610,190205
124620,190262
124630,190272
124640,190219
124691,190202
124774,190306
124777,190258
124782,190255
124790,190223
124841,190222
124851,190309
124860,190194
124870,190182
124880,190182
124890,190182
124901,190321
124911,190189
124920,190156
124930,190181
124941,190266
124982,190146
124990,190197
125000,190169
125011,190299
125020,190187
125030,190183
125041,190306
125051,190299
125060,190139
125070,190120
125082,190309
125090,190166
125130,190260
125142,190300
125185,190245
125192,190242
125202,190287
125210,190261
125221,190241
125230,190247
125240,190215
125251,190260
125261,190259
125271,190254
125280,190183
125290,190261
125301,190257
125311,190255
125321,190249
125331,190260
125341,190262
125350,190265
125361,190253
125371,190241
125381,190254
125391,190271
125401,190266
125411,190252
125421,190276
125431,190241
125441,190230
125485,190139
125490,190260
125501,190168
125511,190271
125521,190233
125531,190231
125541,190259
125551,190254
125561,190247
125571,190255
125581,190264
125591,190255
125601,190267
125611,190251
125621,190283
125631,190245
125641,190244
125651,190263
125661,190246
125671,190229
125681,190240
125691,190260
125741,190200
125785,190253
125791,190307
125833,190243
125841,190220
125852,190249
125861,190238
125871,190261
125881,190260
125892,190256
125932,190204
125941,190294
125952,190232
125961,190180
125971,190254
125981,190237
125991,190202
126001,190247
126011,190233
126021,190239
126031,190132
126041,190238
126051,190241
126061,190252
126071,190132
126081,190240
126091,190240
126101,190227
126112,190148
126121,190188
126131,190249
126141,190240
126152,190246
126161,190228
126171,190245
126181,190241
126191,190212
126201,190248
126211,190240
126221,190234
126231,190246
126241,190240
126286,190170
126293,190233
126302,190225
126311,190258
126321,190224
126331,190244
126383,190244
126431,190266
126481,190212
126491,190245
126501,190215
126511,190252
126521,190185
126531,190206
126541,190196
126552,190306
126561,190242
126571,190188
126581,190205
126591,190260
126601,190197
126611,190193
126621,190218
126631,190258
126641,190213
126686,190245
126691,190218
126702,190295
126711,190292
126721,190206
126731,190203
126741,190190
126751,190185
126761,190198
126771,190203
126781,190181
126792,190343
126802,190342
126812,190311
126821,190179
126831,190225
126841,190211
126851,190207
126861,190191
126872,190353
126882,190323
126892,190298
126901,190190
126911,190182
126921,190202
126931,190188
126941,190189
126952,190275
126961,190212
126971,190224
126981,190155
126992,190283
127037,190207
127074,190347
127084,190361
127093,190283
127137,190295
127184,190275
127193,190282
127202,190209
127212,190280
127222,190290
127232,190287
127242,190284
127252,190288
127261,190304
127271,190305
127281,190291
127291,190295
127301,190311
127312,190305
127322,190294
127332,190273
127343,190282
127352,190318
127362,190279
127372,190286
127382,190307
127392,190295
127402,190278
127412,190275
127422,190305
127432,190278
127484,190344
127493,190315
127502,190315
127512,190295
127523,190273
127532,190296
127542,190296
127552,190311
127562,190317
127572,190328
127582,190326
127592,190329
127602,190342
127612,190345
127622,190332
127632,190361
127642,190348
127652,190347
127662,190349
127672,190348
127682,190358
127692,190352
127702,190335
127745,190334
127753,190379
127795,190244
127804,190322
127813,190301
127855,190306
127864,190331
127907,190490
127913,190314
127923,190319
127932,190315
127942,190220
127952,190319
127962,190243
127972,190292
127983,190221
127993,190238
128003,190230
128013,190215
128022,190293
128032,190257
128042,190282
128052,190280
128063,190213
128073,190229
128083,190244
128093,190253
128102,190283
128112,190283
128122,190276
128132,190277
128143,190242
128153,190254
128163,190275
128173,190296
128182,190279
128192,190280
128202,190288
128212,190300
128223,190313
128233,190337
128274,190329
128283,190348
128293,190225
128302,190306
128312,190306
128322,190318
128332,190316
128343,190352
128353,190346
128363,190359
128373,190358
128382,190299
128392,190306
128402,190291
128412,190280
128457,190224
128464,190212
128474,190259
128518,190280
128523,190362
128532,190309
128575,190168
128624,190320
128633,190245
128675,190322
128718,190346
128723,190319
128734,190341
128743,190375
128752,190231
128762,190223
128772,190227
128783,190364
128793,190357
128803,190367
128813,190349
128822,190213
128832,190208
128842,190218
128852,190266
128863,190353
128872,190229
128882,190253
128892,190238
128903,190379
128912,190249
128922,190189
128932,190206
128943,190322
128952,190198
128962,190188
128972,190185
128982,190174
128992,190169
129002,190197
129012,190195
129023,190301
129033,190290
129076,190083
129084,190317
129094,190332
129102,190237
129113,190298
129123,190296
129132,190297
129143,190308
129153,190289
129163,190292
129173,190293
129223,190282
129233,190292
129275,190337
129324,190292
129333,190290
129342,190287
129353,190272
129362,190276
129373,190285
129383,190267
129392,190290
129402,190290
129413,190290
129424,190289
129432,190319
129484,190275
129493,190273
129504,190299
129514,190273
129525,190282
129534,190267
129543,190284
129553,190285
129563,190249
129573,190312
129617,190315
129622,190201
129625,190327
129634,190304
129643,190388
129654,190314
129663,190319
129673,190346
129683,190342
129693,190355
129704,190323
129714,190306
129724,190323
129734,190314
129743,190327
129753,190370
129763,190337
129773,190355
129783,190330
129793,190347
129803,190353
129813,190349
129824,190348
129834,190336
129879,190341
129882,190273
129886,190262
129895,190221
129904,190329
129913,190246
129924,190243
129933,190312
129943,190305
129953,190277
129964,190224
129974,190215
129983,190280
129993,190282
130003,190306
130013,190295
130024,190213
130034,190253
130044,190257
130054,190263
130063,190296
130073,190270
130083,190282
130126,190235
130133,190250
130144,190245
130186,190223
130236,190227
130244,190220
130287,190038
130294,190222
130304,190219
130313,190258
130324,190260
130334,190270
130343,190257
130354,190276
130364,190272
130374,190294
130383,190266
130394,190293
130404,190298
130414,190304
130423,190287
130434,190324
130443,190265
130454,190306
130463,190294
130474,190295
130484,190295
130494,190302
130503,190297
130514,190309
130524,190334
130534,190324
130543,190316
130553,190295
130564,190337
130574,190338
130584,190345
130594,190344
130604,190340
130614,190329
130623,190298
130634,190322
130684,190200
130694,190235
130703,190189
130713,190161
130723,190241
130734,190277
130743,190232
130785,190219
130795,190166
130846,190269
130854,190265
130905,190179
130914,190272
130923,190256
130934,190296
130943,190174
130954,190291
130964,190299
130974,190296
130984,190294
130994,190277
131004,190270
131014,190278
131023,190179
131034,190281
131077,190110
131084,190172
131094,190180
131104,190336
131113,190159
131124,190244
131134,190259
131143,190152
131154,190245
131164,190249
131174,190247
131183,190117
131194,190248
131204,190259
131214,190247
131223,190166
131234,190267
131244,190248
131254,190239
131263,190205
131274,190239
131284,190241
131294,190257
131303,190207
131314,190235
131324,190231
131334,190231
131343,190217
131353,190247
131364,190243
131374,190247
131384,190256
131394,190253
131404,190252
131445,190261
131450,190336
131455,190321
131466,190275
131508,190289
131514,190291
131525,190338
131577,190264
131584,190300
131626,190188
131634,190312
131645,190233
131654,190272
131665,190250
131675,190273
131685,190281
131694,190277
131705,190275
131715,190264
131725,190275
131734,190282
131744,190284
131754,190284
131764,190318
131774,190321
131785,190344
131795,190348
131805,190353
131814,190345
131825,190352
131835,190342
131884,190247
131894,190378
131904,190377
131915,190357
131925,190345
131934,190337
131944,190374
131955,190383
131965,190375
131974,190367
131985,190363
131995,190375
132005,190368
132014,190360
132025,190369
132035,190366
132045,190359
132054,190378
132065,190343
132075,190351
132085,190326
132094,190334
132104,190304
132115,190336
132125,190328
132134,190337
132144,190384
132188,190445
132194,190380
132278,190382
132286,190306
132295,190376
132336,190382
132345,190381
132396,190447
132446,190419
132456,190424
132504,190428
132515,190448
132525,190477
132534,190443
132544,190447
132554,190461
132565,190460
132574,190407
132585,190476
132595,190478
132605,190489
132614,190420
132625,190478
132635,190470
132685,190345
132696,190329
132705,190330
132714,190402
132725,190415
132734,190331
132744,190400
132754,190367
132764,190372
132774,190364
132784,190363
132794,190356
132804,190370
132814,190369
132824,190372
132834,190381
132844,190371
132854,190379
132864,190362
132874,190378
132884,190380
132894,190361
132904,190376
132914,190363
132924,190358
132934,190352
132944,190336
132954,190335
132964,190338
132974,190328
132984,190303
132994,190309
133045,190280
133085,190288
133135,190406
133146,190436
133195,190319
133204,190286
133214,190233
133224,190253
133234,190280
133244,190268
133254,190297
133264,190304
133274,190309
133284,190282
133294,190285
133304,190296
133314,190315
133324,190305
133334,190309
133345,190353
133355,190333
133364,190286
133374,190301
133384,190331
133394,190335
133404,190326
133414,190338
133424,190345
133436,190330
133486,190341
133495,190251
133505,190347
133515,190325
133526,190355
133536,190341
133546,190335
133556,190334
133566,190333
133576,190357
133585,190331
133596,190327
133606,190351
133616,190344
133625,190314
133636,190323
133646,190331
133656,190333
133665,190313
133676,190319
133686,190326
133696,190328
133738,190338
133745,190318
133787,190027
133836,190283
133845,190266
133886,190349
133895,190371
133905,190380
133915,190346
133926,190410
133936,190390
133945,190401
133955,190387
133965,190426
133976,190358
133985,190367
133995,190365
134039,190365
134046,190273
134055,190383
134065,190366
134075,190356
134086,190343
134095,190293
134105,190346
134115,190347
134125,190368
134136,190346
134145,190364
134156,190379
134165,190375
134175,190338
134185,190371
134195,190274
134205,190294
134215,190378
134225,190302
134235,190336
134245,190363
134255,190361
134265,190359
134275,190332
134285,190310
134295,190398
134305,190352
134315,190384
134325,190346
134335,190387
134380,190321
134426,190374
134435,190348
134477,190382
134488,190379
134528,190267
134536,190304
134545,190361
134556,190408
134565,190387
134575,190392
134585,190337
134595,190423
134605,190395
134615,190377
134625,190411
134635,190415
134645,190402
134655,190398
134665,190402
134675,190387
134727,190337
134735,190445
134745,190312
134755,190380
134765,190401
134775,190303
134785,190379
134795,190378
134805,190385
134815,190355
134825,190376
134835,190365
134845,190367
134855,190371
134865,190357
134875,190376
134885,190382
134895,190397
134905,190404
134915,190394
134925,190390
134935,190383
134945,190395
134955,190391
134965,190396
134975,190393
134985,190311
134995,190391
135005,190386
135015,190335
135025,190355
135036,190442
135086,190313
135138,190487
135187,190385
135198,190358
135206,190434
135246,190327
135256,190464
135266,190384
135275,190369
135286,190417
135295,190361
135305,190394
135316,190433
135325,190388
135336,190414
135345,190405
135356,190425
135365,190380
135376,190411
135386,190399
135395,190433
135406,190420
135416,190426
135425,190450
135436,190437
135486,190431
135497,190429
135506,190491
135516,190439
135526,190448
135536,190464
135546,190447
135556,190468
135566,190450
135576,190439
135586,190437
135596,190430
135606,190431
135616,190445
135626,190427
135636,190422
135646,190421
135656,190387
135666,190411
135676,190434
135686,190401
135696,190418
135706,190425
135716,190399
135726,190420
135736,190392
135746,190420
135756,190416
135809,190427
135852,190419
135867,190413
135911,190439
135919,190408
135929,190403
135937,190463
135982,190400
135987,190295
135997,190458
136039,190377
136046,190409
136056,190379
136066,190359
136076,190380
136086,190351
136096,190360
136106,190343
136116,190333
136126,190321
136136,190337
136146,190319
136156,190334
136166,190314
136176,190343
136186,190394
136196,190311
136206,190300
136216,190377
136226,190352
136236,190333
136281,190238
136286,190017
136297,190314
136306,190327
136316,190345
136327,190273
136336,190371
136347,190307
136356,190386
136367,190346
136376,190379
136386,190389
136397,190387
136406,190388
136417,190374
136426,190376
136437,190386
136446,190408
136456,190377
136466,190398
136477,190390
136486,190400
136496,190405
136506,190381
136517,190404
136526,190405
136536,190412
136587,190404
136637,190404
136647,190452
136692,190446
136739,190646
136746,190480
136797,190486
136806,190490
136816,190478
136826,190476
136836,190501
136846,190459
136857,190554
136866,190488
136876,190445
136887,190521
136896,190484
136906,190478
136917,190525
136926,190482
136936,190493
136946,190485
136956,190481
136967,190526
136976,190464
136986,190462
136997,190514
137006,190354
137016,190425
137026,190441
137037,190509
137089,190549
137098,190497
137106,190383
137116,190365
137127,190502
137136,190383
137146,190352
137157,190500
137166,190388
137176,190369
137187,190502
137196,190373
137207,190470
137216,190388
137226,190377
137237,190492
137246,190377
137257,190490
137266,190385
137277,190476
137286,190396
137296,190416
137348,190465
137358,190476
137402,190517
137440,190460
137447,190490
137456,190425
137497,190468
137509,190506
137517,190464
137527,190506
137537,190501
137546,190507
137557,190511
137566,190508
137577,190516
137587,190503
137598,190522
137607,190518
137617,190517
137627,190531
137638,190527
137647,190530
137658,190527
137667,190528
137678,190558
137687,190529
137698,190534
137707,190565
137718,190545
137727,190528
137738,190537
137747,190545
137758,190556
137767,190518
137778,190551
137787,190527
137797,190538
137808,190554
137817,190578
137827,190545
137838,190542
137888,190572
137897,190595
137907,190573
137918,190532
137927,190528
137938,190523
137982,190507
137991,190543
137996,190487
138041,190467
138046,190561
138100,190525
138108,190541
138117,190547
138128,190549
138137,190581
138147,190569
138157,190565
138168,190548
138177,190558
138187,190526
138198,190561
138207,190517
138218,190573
138227,190502
138237,190579
138290,190567
138298,190581
138308,190567
138317,190577
138327,190576
138338,190495
138347,190549
138358,190500
138367,190587
138378,190521
138387,190574
138398,190545
138407,190582
138418,190592
138427,190580
138438,190563
138447,190587
138458,190570
138467,190591
138478,190596
138487,190602
138498,190589
138507,190612
138518,190607
138527,190604
138538,190606
138547,190588
138558,190609
138567,190595
138578,190616
138587,190622
138598,190639
138638,190609
138642,190474
138647,190515
138658,190560
138699,190563
138709,190622
138717,190549
138728,190535
138739,190623
138747,190592
138758,190607
138767,190579
138778,190621
138787,190507
138798,190604
138808,190599
138849,190588
138858,190528
138867,190501
138878,190600
138887,190502
138897,190505
138907,190524
138918,190552
138928,190492
138938,190618
138948,190653
138957,190515
138968,190513
138979,190561
139023,190572
139030,190545
139038,190508
139090,190569
139098,190594
139107,190533
139118,190611
139127,190523
139137,190541
139147,190518
139157,190512
139168,190628
139177,190492
139228,190474
139239,190617
139248,190566
139257,190472
139268,190600
139277,190496
139287,190512
139297,190474
139307,190456
139318,190590
139327,190463
139338,190560
139347,190468
139357,190464
139368,190563
139377,190473
139387,190471
139397,190511
139408,190552
139417,190463
139427,190433
139437,190514
139483,190557
139497,190562
139508,190610
139518,190601
139527,190569
139538,190589
139548,190578
139558,190584
139567,190556
139578,190574
139588,190582
139597,190594
139642,190499
139648,190562
139658,190608
139700,190582
139710,190590
139750,190605
139755,190471
139758,190601
139770,190583
139811,190561
139818,190571
139828,190562
139839,190578
139848,190570
139893,190607
139901,190515
139907,190549
139919,190580
139928,190565
139938,190583
139949,190548
139958,190545
139969,190569
139978,190568
139988,190577
139998,190574
140009,190545
140018,190586
140028,190572
140039,190576
140048,190565
140059,190592
140068,190582
140079,190602
140088,190564
140099,190605
140108,190613
140119,190605
140128,190589
140139,190568
140149,190594
140158,190607
140168,190592
140178,190611
140188,190624
140198,190601
140209,190585
140218,190594
140228,190616
140238,190613
140282,190642
140289,190601
140299,190691
140309,190627
140349,190743
140359,190693
140368,190701
140421,190628
140429,190662
140499,190633
140504,190607
140509,190588
140518,190642
140528,190577
140538,190581
140549,190572
140558,190675
140568,190587
140578,190626
140588,190657
140598,190666
140608,190572
140618,190603
140628,190666
140638,190616
140688,190647
140699,190639
140708,190660
140718,190655
140728,190683
140738,190634
140748,190642
140759,190681
140768,190685
140779,190695
140788,190673
140799,190693
140808,190684
140818,190689
140828,190687
140838,190676
140849,190684
140858,190677
140868,190682
140878,190660
140889,190703
140898,190663
140908,190698
140918,190660
140929,190717
140938,190671
140949,190716
140958,190700
140968,190679
140978,190657
140989,190715
140998,190704
141008,190670
141052,190575
141060,190638
141104,190615
141141,190681
141145,190685
141150,190537
141160,190689
141168,190380
141219,190631
141270,190663
141278,190587
141288,190603
141298,190640
141308,190592
141319,190739
141328,190583
141339,190763
141348,190664
141358,190647
141368,190671
141378,190600
141388,190618
141399,190761
141408,190609
141419,190724
141428,190644
141438,190586
141482,190733
141490,190680
141498,190670
141509,190633
141518,190588
141528,190600
141539,190694
141548,190635
141558,190607
141568,190616
141578,190640
141588,190603
141598,190579
141608,190608
141618,190599
141628,190552
141638,190617
141648,190662
141658,190657
141668,190616
141678,190635
141688,190663
141698,190668
141708,190638
141719,190672
141728,190692
141739,190689
141749,190680
141758,190711
141769,190694
141778,190578
141822,190641
141912,190678
141920,190701
141928,190684
141982,190766
141990,190665
141999,190691
142009,190675
142020,190679
142029,190685
142039,190684
142050,190658
142059,190660
142069,190641
142079,190669
142090,190642
142099,190680
142109,190651
142119,190644
142129,190671
142140,190655
142150,190665
142159,190655
142169,190671
142179,190653
142189,190634
142199,190641
142210,190680
142219,190668
142229,190660
142239,190665
142290,190693
142302,190623
142309,190668
142319,190612
142329,190643
142340,190618
142349,190703
142359,190645
142369,190640
142380,190622
142389,190658
142400,190654
142409,190658
142419,190653
142429,190642
142440,190641
142449,190602
142459,190559
142469,190517
142479,190475
142489,190495
142540,190529
142582,190487
142591,190563
142600,190570
142643,190609
142650,190623
142660,190596
142669,190586
142679,190679
142690,190651
142731,190772
142740,190696
142751,190796
142759,190793
142769,190766
142780,190786
142790,190798
142799,190812
142809,190765
142819,190820
142829,190792
142839,190770
142850,190820
142859,190789
142869,190828
142879,190828
142889,190797
142900,190863
142909,190846
142919,190825
142930,190893
142939,190833
142949,190883
142960,190902
142969,190872
142979,190859
142989,190883
142999,190851
143009,190806
143020,190849
143029,190843
143039,190790
143092,190873
143100,190821
143110,190864
143119,190802
143129,190807
143140,190893
143149,190858
143194,190762
143200,190872
143209,190820
143220,190884
143230,190910
143240,190946
143249,190830
143259,190832
143269,190827
143279,190819
143289,190880
143300,190861
143340,190983
143350,190814
143360,190887
143370,190973
143380,190962
143389,190880
143400,191016
143409,190892
143419,190923
143430,191033
143440,190954
143481,191041
143493,191007
143531,190901
143534,190762
143541,190883
143551,190982
143559,190998
143570,190942
143609,190996
143620,190945
143670,191122
143679,191012
143690,191119
143700,191228
143710,191190
143719,191084
143730,191202
143739,191096
143749,191134
143760,191250
143769,191176
143779,191150
143789,191176
143800,191259
143809,191205
143819,191196
143829,191216
143839,191246
143891,191134
143901,191237
143951,191280
143959,191160
143969,191155
143979,191134
143989,191137
143999,191152
144010,191129
144019,191116
144030,191066
144039,191081
144049,191013
144061,191047
144069,191050
144080,191031
144091,191039
144100,191047
144110,191044
144120,191060
144130,191046
144140,191063
144151,191063
144160,191080
144210,191135
144253,191175
144263,191249
144271,191156
144348,191152
144352,191236
144360,191094
144411,191147
144420,191138
144430,191142
144441,191102
144450,191098
144461,191089
144471,191111
144480,191109
144490,191063
144500,191091
144511,191048
144520,191058
144530,191100
144541,191035
144550,191068
144560,191070
144570,191082
144581,191038
144590,191047
144600,191068
144611,191029
144620,191062
144631,191033
144640,191039
144690,191105
144700,191022
144710,191046
144721,191054
144730,190996
144740,191042
144751,191031
144760,190985
144770,191064
144781,191003
144790,191018
144800,191064
144811,191009
144820,191038
144830,191044
144840,191058
144851,190959
144860,190998
144870,191032
144880,191053
144890,191035
144901,190988
144951,191052
144961,190989
145011,191021
145055,190951
145060,191008
145103,191006
145110,191057
145120,191056
145130,191031
145141,191049
145150,191021
145160,191024
145170,190990
145181,191058
145190,190986
145201,191056
145210,191033
145220,190979
145231,191069
145240,191068
145250,190964
145261,191066
145270,190980
145280,191051
145290,190956
145301,191073
145310,191035
145320,191047
145330,190985
145341,191081
145350,190977
145361,191074
145370,191035
145380,190992
145391,191076
145400,191036
145410,190968
145421,191123
145430,191069
145440,191007
145491,191129
145500,191143
145510,191136
145521,191225
145530,191170
145540,191160
145550,191147
145602,191143
145612,191144
145654,191028
145662,191130
145705,190992
145711,191071
145720,191061
145731,191098
145740,190986
145750,190968
145760,190937
145771,191029
145780,190947
145791,191020
145800,190950
145811,191037
145820,190891
145831,190996
145840,190881
145884,190859
145891,191020
145900,190896
145911,190970
145920,190873
145931,190977
145940,190967
145951,191007
145960,190884
145971,190996
145980,190929
145991,191028
146000,190979
146011,191033
146021,191043
146030,191046
146041,191086
146050,191048
146061,191080
146070,191097
146081,191101
146090,191094
146101,191088
146110,191098
146121,191079
146132,191108
146141,191109
146151,191128
146161,191118
146172,191122
146182,191128
146191,191103
146201,191096
146242,191099
146247,190896
146252,191091
146291,191109
146295,190977
146302,191204
146343,191156
146354,191175
146404,191139
146413,191121
146421,191120
146432,191100
146441,191117
146451,191138
146462,191116
146471,191103
146481,191106
146492,191066
146501,191090
146511,191063
146522,191042
146531,191050
146541,191065
146551,191063
146562,191018
146571,191036
146581,191013
146592,190996
146601,190984
146612,190971
146621,190998
146631,190975
146642,190962
146692,190918
146701,190917
146712,190910
146721,190897
146731,190867
146742,190881
146751,190847
146761,190875
146772,190851
146781,190795
146792,190832
146801,190806
146812,190827
146821,190790
146832,190818
146841,190824
146851,190768
146862,190774
146871,190803
146882,190729
146891,190767
146902,190699
146911,190767
146955,190714
146961,190628
146973,190740
147017,190680
147022,190626
147031,190700
147073,190671
147082,190666
147124,190829
147133,190702
147142,190584
147151,190631
147161,190677
147172,190662
147181,190673
147192,190675
147201,190653
147212,190645
147221,190665
147232,190634
147241,190612
147252,190639
147261,190588
147272,190608
147281,190593
147292,190602
147301,190594
147312,190602
147321,190577
147332,190609
147341,190559
147351,190566
147362,190613
147371,190588
147382,190640
147391,190598
147402,190636
147411,190627
147422,190635
147431,190595
147483,190471
147491,190545
147501,190577
147512,190650
147522,190669
147531,190558
147542,190663
147551,190579
147562,190612
147571,190569
147582,190611
147591,190539
147602,190624
147611,190553
147622,190609
147672,190516
147683,190610
147733,190547
147745,190726
147752,190513
147761,190450
147772,190510
147781,190427
147792,190446
147801,190440
147811,190455
147821,190452
147831,190441
147841,190448
147851,190483
147893,190738
147901,190620
147911,190666
147921,190657
147931,190686
147942,190801
147952,190919
147961,190875
147972,191017
147981,190952
147991,190995
148002,191013
148012,191101
148103,191058
148148,191085
148163,190912
148171,190886
148181,190816
148191,190831
148201,190801
148211,190824
148221,190808
148233,190829
148242,190842
148251,190862
148263,190907
148272,190954
148283,190991
148292,191030
148303,191075
148312,191100
148323,191165
148332,191206
148343,191260
148352,191338
148363,191403
148406,191580
148413,191588
148422,191613
148432,191704
148443,191668
148452,191708
148463,191776
148472,191820
148483,191912
148492,192037
148503,192084
148513,192139
148522,192173
148533,192132
148542,192150
148553,192118
148562,192073
148573,192044
148583,192030
148592,192035
148603,192035
148612,192002
148623,192005
148632,192001
148723,191096
148735,190966
148744,190939
148795,190904
148803,190861
148843,190862
148852,190914
148896,192044
148902,191061
148912,191092
148922,191154
148932,191223
148943,191312
148952,191372
148962,191424
148972,191526
148982,191613
148992,191687
149002,191772
149012,191850
149022,191891
149032,191927
149082,192066
149092,191944
149102,192060
149112,192077
149122,192090
149132,192074
149142,192103
149152,192110
149162,192114
149172,192114
149182,192117
149192,192158
149202,192156
149212,192175
149222,192214
149232,192236
149242,192226
149252,192262
149262,192281
149272,192345
149282,192399
149292,192469
149302,192417
149312,192451
149322,192414
149332,192385
149342,192325
149352,192283
149362,192277
149372,192266
149382,192251
149392,192224
149444,191818
149454,191720
149535,192117
149543,191339
149554,191276
149603,191085
149654,190891
149662,190873
149672,190863
149682,190881
149692,190906
149702,190924
149712,190937
149722,190935
149732,190981
149743,191020
149752,190982
149762,190969
149772,190994
149782,190993
149792,191004
149802,191015
149812,191013
149822,190985
149832,190993
149884,191014
149893,191057
149902,190951
149912,190865
149923,191032
149932,190929
149943,191023
149952,190960
149962,190887
149972,190865
149982,190939
149992,190873
150002,190842
150012,190803
150022,190872
150032,190811
150042,190830
150052,190748
150062,190813
150072,190773
150082,190786
150092,190761
150102,190827
150112,190789
150122,190808
150133,190899
150142,190782
150152,190761
150237,190782
150246,190798
150253,190837
150293,190835
150338,190860
150354,190885
150363,190809
150372,190875
150382,190868
150392,190816
150402,190881
150412,190886
150423,190868
150433,190872
150443,190872
150453,190873
150463,190840
150473,190831
150483,190817
150493,190803
150503,190790
150513,190780
150523,190774
150533,190782
150544,190804
150553,190785
150563,190805
150573,190791
150583,190771
150593,190789
150603,190788
150613,190780
150623,190779
150633,190782
150678,190789
150683,190808
150693,190801
150703,190777
150713,190777
150723,190751
150733,190759
150743,190750
150753,190755
150763,190737
150773,190740
150783,190730
150793,190729
150803,190698
150813,190696
150823,190684
150833,190685
150843,190678
150853,190664
150863,190670
150904,190759
150948,190678
150954,190708
150963,190706
151004,190707
151015,190702
151023,190707
151033,190699
151043,190719
151053,190724
151103,190739
151113,190678
151123,190662
151133,190737
151143,190659
151153,190741
151163,190747
151173,190740
151183,190697
151193,190749
151203,190742
151213,190762
151223,190671
151233,190662
151243,190753
151253,190763
151263,190683
151273,190655
151283,190754
151293,190766
151303,190681
151313,190757
151323,190697
151333,190746
151344,190743
151353,190636
151363,190728
151373,190737
151383,190667
151393,190728
151403,190733
151413,190727
151423,190709
151433,190724
151476,190713
151484,190735
151493,190678
151503,190722
151513,190711
151563,190735
151603,190739
151614,190722
151624,190735
151665,190751
151673,190750
151715,190708
151723,190720
151733,190727
151744,190821
151753,190797
151763,190731
151773,190749
151783,190776
151793,190797
151803,190731
151813,190754
151823,190773
151833,190727
151878,190718
151885,190743
151893,190803
151903,190741
151913,190739
151923,190744
151934,190845
151944,190838
151954,190831
151964,190842
151974,190849
151983,190728
151993,190706
152003,190704
152013,190814
152024,190880
152034,190886
152044,190877
152054,190884
152063,190745
152073,190731
152083,190749
152093,190756
152104,190893
152114,190923
152124,190895
152134,190914
152143,190812
152153,190765
152163,190783
152173,190793
152184,190913
152194,190912
152204,190910
152214,190909
152291,190769
152304,190834
152356,190769
152366,190880
152414,190903
152424,190913
152433,190783
152444,190858
152453,190754
152464,190894
152473,190779
152483,190783
152494,190763
152504,190910
152546,190810
152554,190802
152564,190888
152574,190885
152583,190858
152593,190832
152603,190882
152613,190772
152624,190861
152633,190862
152643,190863
152653,190856
152664,190863
152674,190909
152717,190777
152766,190883
152774,190837
152784,190857
152794,190857
152804,190851
152815,190877
152824,190850
152834,190872
152844,190861
152854,190859
152864,190855
152874,190861
152884,190868
152894,190860
152904,190866
152914,190868
152924,190869
152934,190875
152945,190862
152954,190878
152964,190871
152974,190895
152984,190889
152994,190907
153004,190902
153014,190904
153025,190880
153035,190904
153084,190924
153095,190952
153104,190918
153115,190903
153124,190940
153134,190943
153145,190913
153155,190907
153165,190912
153174,190887
153185,190904
153194,190894
153204,190933
153214,190943
153225,190894
153235,190908
153245,190925
153254,190913
153265,190936
153305,190926
153309,190871
153315,191020
153365,190918
153408,190962
153417,190896
153424,190979
153435,190914
153445,190891
153454,190908
153465,190911
153506,190987
153516,190926
153526,191008
153534,191023
153544,191049
153554,191047
153564,191019
153574,191027
153585,191038
153595,191019
153605,191039
153614,191005
153625,191043
153635,191012
153645,191055
153654,191026
153665,191078
153675,191075
153685,191088
153694,191084
153705,191089
153715,191084
153725,191085
153734,191085
153744,191081
153754,191048
153764,191058
153774,191056
153784,191069
153794,191048
153804,191072
153814,191056
153825,191103
153835,191112
153879,190965
153886,191094
153895,191079
153904,191102
153914,191059
153924,191056
153968,191055
153974,191102
154025,191041
154035,191175
154075,191130
154086,191165
154094,191113
154105,191157
154115,191181
154125,191180
154134,191117
154144,191097
154154,191120
154165,191184
154174,191135
154185,191186
154195,191199
154205,191188
154214,191144
154225,191184
154235,191221
154278,191201
154286,191229
154295,191244
154304,191137
154314,191111
154325,191274
154334,191164
154344,191196
154355,191269
154365,191269
154374,191166
154385,191246
154395,191256
154405,191226
154414,191153
154425,191228
154435,191272
154445,191255
154454,191152
154465,191256
154475,191240
154485,191246
154494,191147
154505,191248
154515,191256
154525,191243
154534,191202
154544,191174
154555,191244
154565,191231
154574,191235
154585,191245
154637,191286
154645,191265
154684,191229
154728,191226
154737,191321
154745,191145
154787,191342
154795,191306
154805,191265
154815,191260
154825,191284
154835,191265
154845,191274
154855,191259
154866,191288
154876,191280
154886,191254
154896,191252
154905,191241
154915,191258
154925,191254
154935,191210
154946,191242
154955,191259
154965,191249
154975,191270
154986,191227
154996,191271
155006,191273
155016,191292
155025,191325
155035,191311
155088,191263
155096,191334
155105,191249
155115,191271
155125,191273
155136,191271
155145,191258
155156,191282
155166,191288
155176,191259
155185,191267
155196,191269
155205,191280
155216,191266
155225,191297
155236,191258
155246,191262
155255,191274
155266,191280
155276,191274
155286,191273
155295,191280
155306,191288
155350,191206
155355,191206
155365,191285
155408,191284
155416,191274
155426,191274
155477,191355
155486,191246
155566,191176
155576,191119
155585,191120
155596,191026
155606,190983
155615,191084
155626,191045
155636,191053
155645,191094
155656,191078
155665,191110
155676,191124
155686,191127
155696,191159
155705,191156
155716,191158
155726,191153
155736,191162
155745,191184
155755,191202
155766,191218
155775,191207
155786,191252
155796,191245
155806,191257
155816,191266
155826,191249
155836,191250
155886,191175
155896,191144
155905,191199
155915,191212
155925,191196
155936,191246
155946,191242
155956,191246
155966,191235
155976,191244
155985,191211
155996,191231
156006,191226
156016,191226
156025,191186
156036,191234
156046,191220
156056,191239
156065,191194
156111,191238
156114,191218
156118,191162
156126,191187
156135,191136
156177,191144
156186,191177
156230,191066
156236,191178
156238,191083
156325,191063
156336,191005
156345,190994
156355,191047
156365,190981
156375,190993
156385,191002
156395,191001
156405,190973
156415,190977
156425,191027
156435,190966
156445,191009
156455,190974
156465,191009
156475,191016
156485,191030
156495,190986
156505,191057
156515,191024
156525,191046
156535,191030
156545,191056
156555,191063
156565,191062
156575,191016
156585,191023
156595,191026
156605,191029
156615,191062
156625,191053
156635,191021
156686,191025
156696,191052
156705,191095
156715,191046
156725,191078
156735,191076
156746,191082
156756,191078
156765,191053
156775,191066
156785,191047
156795,191043
156805,191049
156815,191085
156825,191061
156876,191046
156885,191044
156896,191043
156939,191062
156980,191105
156984,191021
156987,191153
156996,191079
157005,191062
157016,190992
157026,191040
157036,191034
157046,191003
157056,191045
157067,191055
157077,191031
157085,191068
157096,191034
157106,191030
157157,191047
157166,191004
157176,191014
157186,191049
157195,191030
157207,190999
157217,191011
157226,191017
157236,190930
157247,191000
157256,191012
157307,191004
157315,191060
157326,190979
157336,190997
157346,191018
157355,190945
157366,191003
157376,190997
157386,191024
157396,191019
157406,190995
157416,190991
157426,190991
157436,190987
157446,190973
157456,190948
157466,190964
157476,190944
157486,191006
157496,190919
157506,190908
157516,190920
157568,190963
157577,190855
157586,191006
157596,190850
157606,190871
157616,190898
157626,190955
157636,190876
157646,190918
157656,190936
157666,190909
157676,190914
157686,190944
157696,190964
157706,190964
157716,190947
157726,190949
157736,190998
157746,191000
157756,190955
157808,190990
157817,190999
157827,190988
157878,191021
157931,191044
157970,190999
157974,190955
157980,191074
157987,191048
157998,190894
158006,191006
158016,191007
158026,191000
158036,191002
158046,191005
158056,191015
158066,191013
158076,190978
158086,191005
158096,191003
158106,190992
158116,190983
158126,190991
158136,190980
158146,190951
158156,190978
158166,190973
158176,190955
158186,190979
158196,190953
158206,190978
158216,190965
158226,190951
158236,190938
158287,190918
158296,190910
158307,190973
158316,190953
158326,190948
158336,190940
158346,190944
158356,190955
158366,190952
158376,190950
158386,190951
158396,190954
158406,190968
158416,190920
158426,190915
158437,191021
158446,190907
158456,190922
158466,190894
158477,191026
158486,190911
158539,190982
158546,190867
158597,190995
158641,190973
158648,191011
158658,190835
158739,191001
158744,190954
158750,190951
158759,190859
158768,190914
158777,190946
158787,190934
158797,190937
158807,190932
158816,190920
158827,190939
158837,190933
158847,190948
158857,190947
158867,190941
158877,190951
158887,190935
158897,190952
158907,190964
158917,190960
158927,190948
158937,190958
158947,190944
158957,190950
158967,190952
158977,190955
158987,190945
158997,190948
159007,190931
159017,190926
159027,190940
159037,190919
159090,190927
159097,190936
159107,190947
159117,190922
159127,190919
159137,190933
159147,190914
159157,190931
159167,190921
159177,190933
159187,190917
159197,190921
159207,190925
159217,190920
159227,190902
159237,190933
159247,190901
159257,190902
159267,190921
159311,190921
159359,190961
159369,190943
159377,190857
159427,190996
159437,191044
159528,190994
159539,191027
159547,190917
159557,190957
159568,190945
159577,191024
159587,190995
159597,190981
159608,190963
159617,191019
159627,191044
159638,190971
159647,191037
159658,191012
159667,191060
159677,191041
159688,191012
159697,191044
159707,191073
159718,191021
159727,191052
159738,191042
159748,191044
159757,191022
159768,191034
159777,191013
159787,191021
159798,191033
159807,191038
159818,191035
159827,191013
159838,191028
159887,190726
159899,190716
159908,190902
159917,190986
159928,191035
159937,190917
159947,191005
159958,191032
159967,190992
159978,191024
160029,190983
160072,190810
160079,190920
160127,190954
160171,190823
160178,190978
160187,190896
160197,190963
160208,190998
160217,190896
160227,190958
160238,191024
160247,190972
160258,191007
160267,190973
160312,191014
160316,190992
160320,191024
160328,190945
160339,190883
160347,190912
160358,191026
160367,190908
160377,190867
160387,190904
160398,191009
160407,190907
160418,191033
160427,190896
160438,191003
160447,190915
160457,190838
160467,190896
160478,190962
160487,190884
160498,191001
160507,190894
160518,191005
160527,190868
160537,190885
160548,190956
160557,190857
160567,190869
160578,190964
160587,190882
160598,190971
160607,190865
160617,190875
160627,190846
160637,190848
160679,190952
160689,190951
160731,190907
160739,190960
160789,190961
160837,190878
160848,190924
160858,190945
160868,190934
160879,190935
160888,190917
160898,190918
160908,190942
160919,190950
160928,190939
160938,190958
160948,190954
160959,190944
160968,190915
160978,190920
160988,190921
160999,190920
161008,190937
161018,190913
161028,190943
161039,190925
161080,190883
161087,190937
161100,190867
161108,190912
161119,190950
161128,190889
161138,190894
161148,190916
161159,190916
161168,190904
161178,190903
161188,190908
161199,190927
161208,190929
161218,190915
161228,190934
161239,190910
161248,190919
161258,190902
161268,190908
161279,190939
161288,190939
161298,190923
161308,190934
161319,190948
161328,190919
161338,190916
161380,190946
161429,190992
161469,190912
161472,190811
161480,190940
161489,190889
161531,190882
161539,190926
161548,190909
161559,190936
161569,190922
161579,190915
161588,190933
161598,190937
161609,190933
161619,190927
161628,190915
161679,190904
161688,190935
161699,190853
161708,190951
161718,190831
161728,190895
161739,190866
161748,190930
161759,190837
161769,190919
161778,190927
161789,190874
161800,190854
161809,190904
161818,190895
161828,190894
161839,190902
161849,190930
161858,190965
161868,190956
161878,190884
161889,190943
161898,190951
161908,190942
161918,190918
161929,190951
161938,190944
161989,190904
161999,190926
162050,190917
162059,190920
162109,190950
162119,190931
162163,190882
162171,190850
162179,190952
162188,190888
162199,190977
162208,190891
162218,190924
162228,190929
162238,190926
162249,190988
162258,190936
162268,190932
162319,190862
162329,190961
162338,190911
162349,190935
162358,190912
162368,190897
162379,190973
162388,190887
162399,190971
162408,190914
162419,190947
162428,190908
162438,190901
162449,190987
162458,190909
162468,190916
162478,190885
162489,190979
162498,190891
162508,190885
162518,190888
162528,190900
162538,190914
162548,190908
162558,190904
162569,190988
162578,190848
162588,190825
162598,190915
162609,190965
162618,190862
162628,190859
162638,190884
162692,190974
162733,190845
162739,190921
162749,190895
162789,190904
162799,190914
162808,190941
162859,190816
162871,190842
162878,190884
162888,190903
162899,190912
162909,190919
162918,190848
162928,190907
162938,190892
162948,190892
162958,190890
162969,190907
162978,190933
162988,190939
162998,190944
163009,190895
163018,190914
163028,190933
163040,190919
163090,190939
163101,190965
163109,191014
163119,190937
163130,190949
163139,190906
163149,190925
163159,190957
163169,190932
163180,190925
163189,190929
163200,190913
163209,190898
163219,190893
163229,190877
163239,190913
163250,190872
163259,190874
163269,190861
163279,190896
163290,190893
163299,190908
163309,190877
163319,190916
163330,190896
163339,190928
163349,190934
163359,190929
163370,190924
163421,190992
163429,190953
163474,190966
163480,190837
163490,190911
163564,190898
163570,190892
163581,190959
163630,190974
163640,190959
163649,190947
163691,191027
163700,190932
163709,190934
163720,190935
163729,190927
163739,190914
163749,190915
163759,190865
163769,190900
163779,190899
163789,190868
163799,190887
163809,190953
163820,190912
163829,190957
163840,190909
163889,190973
163901,190957
163910,190987
163920,190979
163929,190972
163940,190924
163949,190999
163960,190938
163969,190996
163979,190930
163989,190975
163999,190924
164009,190981
164019,190957
164029,191013
164039,190980
164049,190985
164059,191003
164069,191006
164079,190966
164089,190970
164100,191019
164109,190983
164119,190969
164130,191009
164139,190978
164149,190990
164159,191038
164169,191009
164179,191032
164189,191004
164239,191011
164250,191031
164293,190996
164300,191013
164343,190981
164384,191001
164387,190889
164391,190996
164400,191003
164409,190989
164419,191026
164429,190980
164440,191064
164449,191008
164459,190985
164469,191005
164479,190977
164489,190922
164500,191063
164509,190997
164519,190927
164529,190941
164540,191064
164550,191048
164559,190939
164569,190992
164579,190994
164589,191006
164599,190977
164609,190939
164620,191082
164629,191010
164639,190977
164691,191054
164701,191099
164710,190994
164720,191093
164729,191014
164739,191031
164750,191122
164759,191043
164769,190962
164780,191127
164789,191048
