elapsed_ms,ir
175878,199776
175889,200193
175939,203422
175948,204374
175958,205546
175968,206714
175979,209713
175988,211687
175998,214435
176008,219578
176019,219395
176028,218491
176038,217093
176048,215537
176059,215237
176068,213661
176078,213144
176088,213828
176099,213859
176108,213491
176118,213215
176129,212864
176138,212482
176149,212268
176158,212576
176168,212682
176179,212676
176188,212919
176199,213199
176208,213032
176219,212890
176228,212909
176238,212894
176248,212960
176259,213349
176269,213931
176279,214530
176288,215198
176299,215903
176339,217483
176349,217545
176358,217573
176369,217410
176378,217281
176418,216759
176430,217170
176439,217732
176483,219306
176489,219638
176499,220028
176550,220411
176559,220318
176600,221150
176608,220416
176649,207568
176660,204213
176669,198553
176680,194274
176689,190434
176699,186863
176740,183093
176752,183350
176760,183860
176769,184641
176780,185125
176789,185897
176800,186244
176809,185737
176820,185263
176829,184657
176840,183965
176849,183600
176860,186952
176869,190927
176880,195394
176889,200453
176900,205035
176909,208302
176919,210220
176929,211725
176940,212602
176949,213235
176960,213708
176969,214427
176980,215030
176989,215343
177000,215406
177010,215332
177019,214808
177030,214267
177039,213872
177049,214005
177060,214199
177069,214039
177080,214299
177089,214974
177100,215117
177140,214571
177149,214234
177160,213761
177198,213144
177211,211380
177220,210283
177259,202369
177270,200704
177279,199707
177320,198124
177329,200608
177369,199731
177380,199982
177420,201141
177461,201292
177470,203856
177479,205211
177489,208912
177530,213674
177540,214692
177549,215387
177559,215723
177570,215632
177579,215089
177589,214125
177600,213189
177609,212197
177619,211512
177630,211214
177639,211357
177650,212174
177660,213499
177669,215086
177680,216290
177689,216921
177700,217043
177709,216962
177719,216964
177729,216967
177739,217048
177749,216937
177760,216922
177769,216735
177780,216811
177789,216627
177799,216332
177809,216022
177819,215849
177830,215870
177839,215767
177850,215857
177859,215711
177869,215396
177880,215000
177889,214610
177932,214837
177940,213674
177952,213390
177959,213190
177969,213027
177979,212973
178020,213007
178030,213221
178040,213217
178089,213238
178100,213231
178140,212488
178149,212427
178199,212510
178251,212733
178259,212434
178302,212692
178310,212350
178321,212256
178329,211954
178372,211052
178381,210394
178390,209566
178399,209109
178410,208795
178419,207968
178429,207786
178440,207902
178450,207937
178459,208068
178469,208579
178480,209167
178489,209432
178499,209669
178509,209806
178519,209750
178529,209720
178539,209714
178550,209742
178559,209787
178570,209785
178579,209696
178589,209736
178600,209719
178609,209546
178620,208086
178629,207440
178640,206850
178650,206840
178659,206884
178670,206847
178712,206636
178719,206145
178772,204967
178780,204855
178790,204608
178800,204590
178811,205836
178820,205531
178863,206551
178870,206438
178913,206298
178920,205936
178930,205879
178971,205141
178983,205198
178991,204815
179030,205390
179041,205319
179091,205220
179101,205368
179152,205280
179194,205018
179202,204937
179240,204850
179250,204836
179260,204888
179270,204961
179280,205029
179291,205048
179300,205036
179310,205020
179320,204987
179330,204997
179341,204985
179350,205012
179360,205013
179370,204985
179381,204894
179390,204880
179400,204824
179410,204762
179421,204729
179430,204706
179440,204683
179450,204658
179460,204667
179470,204603
179512,204639
179553,204578
179561,204381
179570,204410
179580,204289
179590,204275
179601,204164
179610,204153
179620,204012
179631,204001
179640,204005
179651,204094
179698,204387
179701,204484
179742,204357
179751,204263
179793,204115
179802,204248
179843,204186
179851,204250
179894,204477
179901,204776
179944,205411
179951,205539
179992,205511
180000,205521
180040,205879
180051,205945
180060,206275
180070,206562
180081,207173
180090,207607
180100,207630
180110,207741
180120,207886
180130,207939
180140,207943
180151,208064
180160,208067
180170,208073
180181,208210
180190,208277
180201,208369
180210,208441
180220,208505
180230,208544
180240,208702
180250,208676
180260,208665
180271,208785
180311,209001
180320,208850
180361,208737
180371,208580
180381,208916
180391,209125
180401,209147
180410,209088
180420,209083
180430,209061
180440,209124
180450,209180
180460,209296
180471,209531
180480,209343
180490,209382
180534,209286
180542,209466
180582,209608
180590,210283
180634,210224
180642,210261
180691,210225
180741,210569
180780,210394
180784,209124
180790,210312
180831,210143
180875,209287
180882,209152
180893,208959
180931,208659
180971,208384
180980,208350
180990,208534
181000,208610
181011,208830
181020,208872
181030,208985
181041,209145
181050,209179
181060,209275
181070,209330
181160,209562
181172,209536
181181,209540
181191,209529
181201,209556
181212,209608
181221,209591
181231,209619
181241,209616
181251,209613
181262,209618
181271,209611
181281,209614
181291,209594
181301,209608
181312,209611
181321,209636
181331,209590
181341,209555
181352,209560
181361,209567
181371,209561
181382,209565
181391,209630
181401,209677
181411,209750
181421,209765
181432,209778
181441,209777
181451,209791
181462,209771
181471,209769
181553,209867
181562,209976
181601,210114
181611,209979
181622,210045
181673,209879
181714,209740
181721,209630
181761,209589
181801,209608
181840,209519
181853,209374
181861,209228
181871,209233
181921,209167
181961,208972
181972,209005
181982,208894
181992,208925
182001,208967
182012,208823
182021,208872
182031,208833
182041,208811
182052,208727
182061,208755
182071,208745
182081,208716
182091,208672
182102,208682
182111,208707
182122,208648
182131,208716
182141,208675
182152,208639
182161,208489
182171,208462
182182,208396
182191,208407
182202,208410
182211,208409
182222,208473
182231,208460
182242,208434
182251,208439
182261,208433
182272,208501
182281,208514
182292,208647
182301,208704
182311,208691
182321,208759
182331,208738
182341,208824
182351,208868
182395,208745
182402,209379
182452,209408
182495,209367
182503,209360
182541,209412
182544,208410
182552,209406
182602,209589
182612,209604
182651,209687
182662,209844
182703,209917
182712,209882
182751,209752
182761,209856
182772,210096
182781,210116
182791,210058
182801,210166
182811,210141
182855,210148
182862,210299
182911,210225
182921,210251
182931,210305
182941,210184
182952,210352
182961,210228
182971,210169
182982,210369
182991,210273
183002,210478
183011,210369
183022,210426
183031,210239
183042,210336
183051,210207
183062,210463
183071,210483
183081,210612
183092,210836
183101,210800
183112,211026
183121,210974
183131,211123
183142,211262
183151,211227
183162,211403
183172,211412
183213,211747
183222,211945
183262,212258
183307,212618
183313,212558
183323,212615
183331,212440
183371,212970
183383,213020
183424,213063
183432,213023
183474,213370
183482,213477
183524,213578
183533,213654
183582,213671
183593,213717
183602,213767
183612,213779
183622,213795
183662,213586
183712,213543
183723,213584
183733,213556
183742,213504
183752,213460
183762,213503
183772,213593
183783,213626
183792,213702
183802,213773
183812,213810
183823,213772
183832,213778
183842,213781
183852,213735
183863,213646
183873,213518
183882,213491
183893,213417
183902,213286
183912,213266
183923,213183
183932,213092
183942,213162
183952,213161
183962,213088
183972,213163
184016,212924
184023,212961
184065,212898
184073,212545
184083,212511
184125,212442
184133,212198
184144,212342
184192,212748
184232,213148
184282,212993
184294,212917
184302,212734
184352,212464
184396,212545
184403,212016
184444,212151
184452,212128
184492,211979
184503,211999
184548,212032
184551,211747
184554,211654
184563,211823
184573,211845
184582,211740
184592,211702
184603,211774
184612,211739
184623,211805
184632,211783
184643,211928
184652,211947
184663,212091
184672,212042
184682,212060
184693,212112
184702,212043
184712,212014
184723,212136
184732,212032
184743,212072
184752,211990
184763,212133
184772,212077
184813,211958
184822,211877
184862,211608
184875,211569
184883,211642
184892,211432
184903,211573
184912,211426
184923,211531
184932,211331
184943,211387
184952,211217
184963,211274
184972,211106
184982,211119
184992,211067
185003,211129
185013,211065
185022,210928
185032,210858
185043,210939
185052,210842
185063,210943
185102,210753
185145,210870
185148,210535
185153,210613
185162,210447
185204,210620
185216,210628
185281,211426
185285,210924
185293,210743
185333,210862
185345,210808
185434,209939
185444,209905
185453,209913
185494,209999
185503,210140
185513,210184
185524,210257
185533,210303
185543,210302
185554,210348
185563,210355
185574,210348
185583,210298
185594,210275
185603,210234
185614,210180
185623,210092
185634,209994
185677,209872
185683,209851
185734,209581
185744,209617
185753,209486
185763,209436
185774,209440
185783,209384
185794,209354
185803,209311
185814,209279
185823,209224
185834,209166
185843,209124
185854,209081
185863,209032
185874,208993
185883,208936
185894,208905
185903,208786
185914,208780
185923,208766
185934,208746
185943,208782
185954,208869
185963,208926
185973,209017
186016,209258
186055,209336
186064,209250
186103,209600
186115,209632
186123,209750
186173,209497
186213,209586
186256,209817
186265,209856
186305,209542
186314,209522
186356,209573
186405,209858
186446,209921
186450,209600
186454,209902
186463,209884
186503,209665
186515,209737
186523,209672
186533,209699
186543,209715
186553,209588
186563,209602
186573,209587
186583,209462
186593,209240
186603,209275
186613,209279
186623,209260
186633,209158
186643,209210
186653,209221
186663,209249
186673,209229
186683,209246
186693,209328
186703,209384
186713,209342
186723,209519
186733,209625
186743,209749
186753,209826
186763,210016
186773,210075
186820,210385
186823,210335
186874,210516
186883,210466
186893,210590
186903,210597
186945,210565
186954,210581
186994,209229
187003,210238
187045,210276
187086,210287
187095,210046
187104,209896
187145,210171
187153,209983
187193,210056
187235,210149
187239,210576
187245,210872
187293,210725
187305,210954
187313,210993
187323,210995
187333,211042
187343,211045
187353,210989
187363,210890
187373,210917
187383,210953
187393,211019
187403,210978
187413,211019
187423,211039
187433,211026
187444,211024
187454,211064
187464,211111
187474,211130
187483,211153
187493,211159
187504,211190
187514,211321
187524,211545
187534,211761
187544,212078
187554,212344
187564,212554
187574,212676
187616,212894
187624,212754
187664,212149
187675,212091
187684,212122
187694,212175
187733,212282
187736,211019
187745,212739
187754,212874
187796,213600
187804,213795
187845,214066
187854,213984
187896,213904
187905,213876
187948,212887
187988,213990
187996,214008
188004,214068
188045,213837
188083,213809
188095,213558
188104,213344
188114,213317
188124,213273
188134,213211
188144,213161
188154,213073
188164,212977
188174,212871
188184,212733
188194,212688
188204,212657
188214,212576
188224,212458
188234,212321
188244,212170
188254,212047
188264,211937
188274,212018
188284,211981
188294,211991
188304,211785
188314,211361
188324,210770
188334,210123
188344,209577
188354,209340
188364,209215
188374,209312
188424,210072
188475,211416
188486,211581
188494,211836
188540,212435
188545,212349
188554,212341
188596,212490
188635,212655
188645,212866
188655,212804
188663,212926
188707,213038
188716,212994
188760,210402
188765,213144
188806,213664
188849,213917
188859,213777
188865,213884
188907,214038
188914,213990
188925,214008
188934,213981
188944,213992
188954,214145
188964,214238
188974,214235
188984,214151
188995,214170
189004,214013
189014,213932
189024,213940
189034,213891
189044,213869
189054,213673
189064,213541
189074,213434
189085,213329
189094,212960
189104,212579
189114,212357
189124,212269
189134,212122
189144,212076
189154,212134
189164,212362
189174,212422
189218,213045
189225,213252
189265,212945
189276,212719
189285,212796
189294,212714
189304,212615
189314,212625
189357,213176
189366,213444
189375,213551
189417,214030
189425,214188
189467,214059
189476,214034
189486,213937
189495,213669
189534,213033
189579,212671
189587,212734
189628,212586
189632,212796
189635,212465
189678,212449
189684,212548
189735,212849
189745,212728
189755,212820
189764,212859
189774,212858
189784,212884
189794,212946
189805,212983
189815,213025
189824,213052
189834,213060
189845,213135
189855,213186
189864,213252
189875,213327
189886,213430
189895,213554
189905,213591
189915,213604
189925,213629
189935,213648
189945,213696
189955,213739
189965,213799
189975,213783
190018,212789
190026,213613
190076,213112
190086,213133
190096,213047
190105,213013
190115,212976
190125,212923
190135,212883
190145,212832
190155,212825
190165,212832
190208,213027
190215,212883
190226,213166
190234,213299
190276,213606
190328,214052
190370,214166
190415,215418
190456,215673
190460,212976
190468,216067
190507,214696
190517,214524
190526,214213
190564,214487
190577,214401
190586,214414
190626,214515
190635,214593
190645,214592
190655,214575
190665,214305
190675,213915
190686,213612
190696,213493
190705,212555
190715,211423
190725,211204
190735,211253
190745,211231
190755,211613
190765,211438
190775,211796
190826,211852
190836,212183
190887,212886
190896,212969
190905,212936
190915,212730
190925,212498
190935,212379
190945,212277
190955,212112
190966,211938
190976,211729
190986,211497
190996,211309
191005,211267
191015,211188
191025,211184
191035,211206
191045,211149
191055,211001
191065,210922
191075,210889
191086,211019
191095,211089
191105,211284
191115,211550
191125,211733
191168,211837
191178,212084
191254,212936
191259,211127
191265,210878
191316,209738
191325,209470
191365,209509
191410,210266
191418,210749
191426,211185
191466,212032
191475,212198
191526,212046
191537,211738
191609,210742
191612,210878
191615,210588
191626,210495
191667,210602
191677,211534
191718,211771
191725,211436
191736,210928
191745,210439
191756,210354
191766,210206
191776,210148
191786,210449
191796,210708
191805,210711
191815,210955
191825,211158
191835,211427
191846,211704
191856,211827
191866,212175
191876,212490
191885,212555
191895,212442
191905,212234
191915,212102
191926,212015
191936,211918
191946,211766
191956,211679
191965,211706
191976,211978
192020,212687
192027,212388
192068,212299
192076,212406
192086,212148
192096,211747
192106,211403
192116,211211
192126,211219
192168,211704
192176,213001
192216,213438
192226,213417
192268,213579
192277,213730
192316,216013
192358,215952
192362,212687
192366,214833
192408,214403
192416,214286
192461,213004
192467,212592
192477,212658
192516,213347
192527,213676
192537,213967
192547,214158
192557,214256
192566,214427
192576,214564
192586,214875
192596,214785
192607,214778
192617,214815
192627,214858
192637,214945
192646,214944
192656,214501
192666,213894
192676,213368
192687,212963
192697,212561
192707,212208
192717,212144
192726,212106
192736,212154
192746,212234
192756,212394
192767,212563
192777,212805
192821,213930
192826,213978
192836,214061
192876,213843
192887,214026
192896,213987
192906,213960
192916,214044
192956,213833
193007,213790
193050,214215
193058,214466
193106,214906
193117,214925
193158,215072
193195,215058
193207,215007
193257,215054
193266,214843
193307,214681
193318,214613
193326,214618
193337,214666
193347,214716
193357,214884
193366,215002
193377,215154
193387,215252
193397,215289
193406,215262
193417,215225
193427,215184
193437,215138
193446,215073
193456,215052
193467,215131
193477,215084
193486,215012
193496,214892
193507,214821
193517,214636
193527,214501
193537,214411
193547,214411
193557,214306
193566,214194
193577,214145
193618,213550
193627,213532
193668,213232
193678,213332
193688,213222
193696,213041
193707,213075
193748,212767
193757,212722
193798,212492
193837,212482
193849,211939
193858,210928
193898,210332
193906,210185
193958,211362
194002,211730
194012,212868
194018,213330
194059,215444
194067,215867
194108,217147
194116,217229
194127,217518
194137,217546
194147,217608
194156,217659
194167,217693
194177,217690
194186,217658
194196,217721
194206,217690
194216,217698
194226,217702
194236,217705
194246,217623
194256,217600
194266,217541
194276,217561
194286,217615
194298,217678
194308,217805
194318,217990
194327,218163
194338,218265
194348,218267
194358,218263
194367,218269
194378,218316
194429,218421
194438,218386
194478,218257
194488,218240
194496,218308
194507,218185
194518,218129
194559,217865
194566,217895
194608,218242
194617,218349
194659,218420
194668,218426
194708,218356
194717,218794
194759,218651
194767,218874
194809,218240
194851,218656
194860,218937
194868,219128
194909,219469
194918,219409
194927,219070
194968,219013
194979,219108
194987,219092
194997,219061
195008,219090
195018,219172
195028,219239
195038,218903
195047,218838
195058,218983
195068,218691
195078,218518
195087,218746
195097,218847
195108,218707
195118,218579
195127,218396
195138,218170
195148,218087
195158,218066
195167,218106
195178,218184
195220,217888
195228,218138
195268,218304
195271,219070
195278,218096
195288,218232
195297,218203
195307,217815
195317,217262
195327,217259
195337,217426
195347,217542
195357,217593
195367,217624
195377,217523
195387,217250
195397,216894
195407,216438
195417,215949
195458,215237
195468,215137
195477,215008
195518,214226
195527,214285
195568,215892
195618,216406
195661,216754
195672,217445
195678,217145
195718,215366
195729,214900
195769,214892
195777,214310
195789,214178
195799,213921
195838,214207
195847,214077
195857,214060
195867,213992
195877,213879
195887,213865
195897,213961
195907,214105
195917,214172
195927,214284
195937,214322
195947,214333
195957,214432
195967,214735
195977,215078
195987,215465
195997,215798
196038,216063
196048,216164
196097,217062
196107,217093
196117,217011
196127,217015
196137,217175
196147,217426
196157,217762
196167,218053
196177,218481
196187,218733
196197,219014
196207,219369
196217,219527
196227,219495
196237,219424
196247,219278
196257,219214
196267,219107
196277,219148
196288,219230
196297,219305
196307,219303
196319,219309
196328,219336
196338,219302
196388,219370
196428,219319
196440,219926
196448,220121
196490,220388
196500,220323
196509,220044
196548,219055
196601,219345
196609,219314
196660,219686
196708,220197
196721,220242
196760,220163
196808,219872
196860,217004
196869,217110
196910,216893
196919,216953
196928,217053
196938,217058
196948,216716
196958,216045
196968,215173
196978,214510
196988,214013
196998,213460
197008,212940
197018,212544
197028,212149
197038,211728
197048,211200
197058,210705
197068,210300
197078,210061
197088,209645
197098,209479
197108,209306
197118,209126
197128,208720
197138,208314
197148,207875
197158,207683
197168,207409
197178,207313
197221,207737
197229,207860
197271,207859
197278,207430
197290,207262
197298,207269
197308,207142
197351,207181
197359,207390
197368,207393
197418,206797
197471,205709
197480,205444
197521,204624
197528,204362
197570,203530
197619,202997
197669,202117
197679,201835
197730,202013
197740,201901
197748,201552
197759,201325
197768,201066
197779,200893
197788,200561
197798,200437
197808,200330
197819,200283
197828,200136
197838,200126
197848,200059
197859,200129
197868,200104
197878,199956
197888,199992
197899,200292
197908,200261
197918,200161
197928,199938
197939,199902
197948,199622
197958,199573
197968,199434
197979,199346
198019,198744
198029,198607
198078,198431
198088,198572
198099,198555
198108,198468
198119,198392
198163,198026
198169,197957
198180,198039
198221,198026
198229,198535
198238,198485
198279,198485
198291,198589
198298,198486
198348,199131
198440,200681
198450,200581
198498,201354
198549,201610
198561,201815
198569,201950
198580,202005
198589,201941
198600,201748
198609,201383
198619,201006
198630,200565
198639,200155
198650,200015
198659,200057
198669,200088
198680,199672
198689,199100
198700,198992
198709,199547
198720,200102
198729,200490
198740,200798
198749,200874
198760,200876
198769,200833
198780,200748
198823,200525
198829,200626
198839,200613
198880,201191
198889,201100
198899,201303
198910,201467
198919,201550
198930,201673
198939,201645
198950,201626
198959,201594
198970,201665
198979,201659
198990,201786
198999,201829
199041,201934
199050,202038
199091,202059
199100,201619
199150,201592
199192,202113
199199,202069
199251,202461
199260,202661
199309,201531
199319,201545
199370,200820
199410,200585
199420,199912
199469,199802
199479,199636
199489,199568
199500,199513
199509,199251
199519,198931
199529,198654
199539,198554
199550,198796
199559,199024
199570,199362
199579,199573
199590,199934
199599,200116
199610,200161
199650,200097
199654,201531
199660,200895
199669,200884
199679,201067
199720,201089
199731,201018
199739,200894
199749,200931
199760,201054
199769,201230
199780,201564
199789,201751
199799,201927
199809,202288
199819,202499
199830,202860
199840,203138
199849,203121
199859,202932
199870,202863
199879,202550
199889,202317
199900,202482
199909,202418
199919,202377
199929,202300
199940,202604
199949,202557
199959,202690
199969,202679
200014,202950
200021,203337
200062,204448
200069,204854
200111,205882
200121,206006
200201,206348
200210,206933
200222,206876
200230,206593
200269,206156
200313,205718
200320,205318
200360,204355
200372,204412
200420,204809
200460,204770
200472,205299
200480,205363
200522,205436
200530,205657
200540,205680
200550,205740
200560,205777
200571,205823
200580,205803
200591,205816
200600,205828
200611,205927
200620,205979
200630,205982
200640,205895
200651,205858
200660,205831
200671,205812
200680,205741
200691,205596
200700,205425
200711,205279
200720,205083
200731,204965
200740,204923
200750,204885
200760,204926
200771,205080
200812,205569
200820,205609
200829,205670
200873,205735
200880,205700
200890,205673
200900,205607
200911,205490
200920,205400
200931,205324
200940,205284
200950,205265
200960,205241
200999,205233
201050,205214
201094,205124
201100,205125
201151,205140
201194,205126
201202,205032
201210,204993
201220,205108
201261,205219
201270,205483
201316,206016
201321,206149
201331,206419
201340,206657
201380,208628
201392,209039
201401,209603
201410,210403
201420,212906
201431,215720
201440,215470
201451,215463
201460,216595
201470,218137
201481,219663
201490,220993
201500,222027
201511,222641
201520,222371
201531,221210
201540,218128
201550,214647
201560,212113
201570,209950
201581,208235
201590,206483
201642,201033
201651,200278
201693,199966
201700,200942
201711,201705
201720,202298
201730,202601
201741,201584
201750,201275
201761,201598
201770,202012
201813,203229
201821,203511
201871,203934
201915,202717
201922,202424
201971,202980
202014,205950
202022,206622
202066,207149
202103,202298
202112,215546
202121,216705
202172,217841
202221,215994
202232,215207
202241,214485
202250,213812
202261,213435
202270,212949
202280,212513
202290,211424
202301,209996
202310,208520
202320,207234
202330,206063
202341,205085
202350,203982
202360,203064
202371,202235
202381,201434
202390,200744
202400,199957
202411,199334
202420,198542
202432,197667
202473,195012
202482,194724
202491,194532
202540,193543
202551,193264
202561,192897
202570,192694
202581,192433
202592,192311
202601,192226
202612,192185
202621,192151
202631,192182
202641,192096
202651,191972
202662,191759
202671,191643
202714,191515
202722,191553
202771,190558
202822,189746
202873,189330
202884,189331
202891,189361
202931,189538
202941,189450
203021,189883
203026,191584
203032,189858
203042,189771
203083,189325
203091,189520
203101,189618
203112,189646
203121,189713
203131,189720
203141,189895
203152,189935
203161,189993
203171,190172
203182,190119
203191,190249
203201,190354
203211,190378
203221,190627
203232,190671
203282,191187
203294,191240
203301,191347
203341,191415
203352,191525
203361,191588
203371,191556
203382,191522
203391,191512
203401,191570
203411,191578
203422,191671
203431,191741
203441,191908
203451,192103
203461,192279
203472,192488
203481,192570
203491,192655
203502,192765
203511,192829
203521,192922
203531,192924
203541,192869
203552,192889
203562,192875
203571,192954
203623,193745
203662,194235
203666,191409
203671,195252
203711,195465
203723,196404
203732,196863
203774,198730
203781,199223
203834,201576
203843,201767
203851,202179
203892,202053
203935,202273
203939,192954
203943,203971
203952,204038
203993,203894
204003,203888
204042,202411
204051,202051
204062,201808
204111,201134
204124,201248
204131,201204
204142,201142
204151,200821
204162,200926
204171,200873
204181,200859
204192,201052
204201,200996
204211,201008
204222,201107
204231,200992
204242,201022
204251,200862
204261,200780
204272,200676
204281,200162
204292,199755
204301,199191
204312,198896
204321,198449
204331,197981
204342,197428
204351,196795
204361,196064
204371,195368
204416,191484
204422,190931
204432,190181
204441,189672
204481,188308
204493,188165
204501,188116
204553,187428
204563,187416
204604,187024
204613,186920
204663,186801
204673,186780
204757,186882
204764,186947
204803,187109
204815,187473
204823,187603
204872,188302
204923,189112
204934,189199
204942,189350
204982,190220
204994,190607
205002,190887
205012,191342
205023,191847
205032,192402
205042,192982
205052,193643
205063,194481
205072,195422
205082,196529
205092,197760
205103,198969
205112,200103
205122,201485
205132,202867
205142,204413
205152,205657
205162,206767
205172,207801
205183,208426
205192,208612
205236,207376
205243,207486
205253,207496
205262,207411
205303,204603
205313,204390
205322,204085
205332,203856
205342,203738
205352,203711
205362,203811
205372,203943
205424,202861
205434,202454
205475,202009
205484,200627
205493,200510
205536,199864
205543,200018
205584,199853
205595,199992
205633,200603
205642,200747
205685,203118
205692,203807
205734,204589
205742,206364
205754,206384
205764,206873
205805,208036
205813,208752
205823,209417
205832,209798
205842,210056
205852,210316
205863,210566
205872,210656
205883,210859
205893,211102
205902,211402
205912,211460
205922,211473
205932,211213
205943,211268
205952,211108
205962,210653
205972,210015
206015,207740
206023,207171
206104,204260
206108,206873
206112,203796
206124,203620
206132,202985
206142,202373
206152,201987
206163,201827
206172,201404
206182,201057
206192,200391
206203,199924
206212,199497
206223,199532
206232,199457
206243,199626
206252,199434
206263,199144
206272,198475
206282,197818
206293,197244
206302,196613
206312,196050
206356,193961
206364,193560
206373,192971
206384,192670
206423,192638
206504,197961
206508,201403
206514,202929
206556,205906
206563,205438
206613,205137
206655,206442
206665,206645
206705,207298
206754,205516
206763,205185
206773,204863
206784,204550
206793,204275
206804,203967
206813,203655
206823,203490
206834,203320
206843,203229
206885,201762
206933,199421
206944,199111
206953,198790
206964,198635
206973,198596
206984,198626
206993,198555
207004,198367
207013,198053
207024,197786
207033,197441
207044,196628
207053,195701
207063,195265
207073,194856
207084,194759
207094,194682
207103,194696
207113,194725
207124,194732
207133,194943
207143,195211
207154,195372
207163,195658
207173,195941
207264,197833
207308,195219
207317,194923
207325,194620
207364,193820
207406,193440
207413,193452
207457,192449
207465,192026
207473,191695
207515,190470
207594,187716
207597,198246
207604,185522
207614,185107
207653,183608
207697,182225
207705,182167
207713,181980
207723,181929
207734,181989
207743,181868
207754,181908
207763,181809
207774,181824
207783,181690
207794,181706
207803,181549
207814,181531
207823,181407
207834,181520
207843,181610
207853,181675
207864,181904
207873,181886
207883,182111
207894,182313
207903,182410
207914,182717
207923,183062
207933,183704
207944,184368
207953,184768
207964,185684
207973,186158
208015,188589
208055,186611
208064,185397
208074,184359
208083,183082
208094,182247
208103,181237
208148,181608
208154,182359
208194,180799
208205,180176
208247,179542
208254,179580
208264,179922
208306,182417
208314,182797
208357,188401
208364,188270
208404,188079
208414,187697
208453,188063
208505,186496
208514,186056
208525,186218
208534,187059
208545,188164
208554,188682
208565,188604
208574,188164
208585,187582
208596,186971
208604,186537
208615,185864
208624,184749
208634,183253
208645,182975
208654,183347
208665,183533
208674,183713
208684,183617
208695,183847
208704,184676
208714,186087
208725,187812
208734,189165
208745,189719
208754,189854
208764,190035
208775,189907
208818,191144
208866,195532
208874,195009
208884,194396
208895,194024
208904,193969
208945,192276
208954,191364
208995,191103
209036,189734
209043,189340
209054,188774
209106,187730
209150,186191
209155,186160
209195,186786
209204,187015
209245,187157
209248,193969
209255,188799
209305,190478
209315,190435
209324,190330
209335,190224
209344,190359
209354,190200
209365,190212
209374,190239
209385,190057
209394,189786
209405,189411
209414,189212
209424,189137
209434,189371
209444,189553
209454,189439
209464,189261
209474,189153
209484,188951
209494,188920
209504,188828
209514,188761
209524,188722
209534,188830
209544,189042
209554,189123
209564,189135
209574,188962
209615,187544
209665,185455
209675,184810
209684,184408
209694,184332
209745,185180
209754,184996
209795,184307
209846,183179
209856,182929
209897,182403
209944,182165
209995,182119
210004,182360
210055,183108
210097,181887
210144,182370
210156,182660
210164,182629
210174,182452
210184,182253
210194,182034
210204,181832
210214,181723
210224,181646
210234,181597
210244,181567
210254,181515
210264,181471
210274,181401
210284,181425
210294,181411
210304,181377
210314,181219
210324,181081
210334,180941
210344,180945
210354,180971
210364,181055
210374,181003
210416,180958
210466,180690
210475,180658
210484,180674
210494,180632
210504,180569
210514,180497
210524,180497
210534,180500
210544,180499
210554,180460
210595,180526
210605,181223
210647,181694
210655,181961
210698,184164
210706,184351
210745,184503
210754,184550
210795,182438
210807,182050
210814,181766
210857,181348
210894,181650
210947,182319
210954,183569
210965,184235
210975,184089
210985,183695
210995,183613
211005,183791
211015,184192
211025,184656
211035,185116
211045,185487
211055,185648
211065,185849
211075,186129
211086,186286
211095,186316
211105,186208
211115,186134
211125,186084
211135,185998
211145,185878
211155,185781
211165,185670
211175,185610
211217,184874
211225,184775
211265,184605
211276,184465
211285,184292
211295,184192
211305,184061
211315,184035
211325,183944
211335,183770
211345,183657
211355,183541
211365,183571
211407,183895
211415,184098
211456,184260
211459,186134
211466,185614
211505,185863
211517,187477
211525,187868
211565,188812
211605,188702
211618,187751
211626,187621
211676,186916
211717,186600
211727,186506
211737,186112
211777,184873
211786,184999
211796,185248
211805,185349
211815,185476
211825,185618
211835,185699
211846,185923
211855,185943
211865,185949
211875,185967
211886,185994
211895,185968
211905,185905
211915,185963
211925,186100
211935,186112
211945,186188
211955,186177
211965,186357
211975,186355
212020,186678
212026,186605
212066,186618
212077,186648
212086,186778
212095,186897
212105,186928
212115,187022
212126,187223
212136,187353
212145,187292
212155,187350
212165,187372
212175,187265
212185,187222
212195,187161
212205,187093
212215,186963
212225,186909
212235,186870
212245,186841
212255,186797
212265,186837
212275,186860
212286,187024
212328,186944
212336,186797
212378,186657
212386,186692
212459,186457
212463,187022
212469,186633
212476,186646
212528,186588
212536,186466
212577,186020
212586,185972
212628,185616
212638,185603
212685,185529
212726,186045
212735,185940
212746,185795
212756,185705
212766,185623
212776,185530
212786,185320
212796,185012
212806,184635
212816,184239
212827,183967
212867,183942
212918,184707
212927,184964
212936,185181
212946,185529
212956,185827
212966,186037
212977,186228
212986,186271
212996,186182
213006,185970
213016,185737
213026,185543
213036,185359
213046,185192
213056,185034
213066,184774
213076,184566
213087,184430
213096,184338
213106,184275
213116,184235
213126,184252
213136,184321
213146,184370
213156,184476
213166,184564
213176,184787
213219,185322
213227,185403
213266,184928
213308,184922
213318,184834
213330,184894
213336,185074
213376,184689
213427,184506
213438,184536
213447,184436
213487,184544
213527,184591
213537,184099
213579,184074
213586,184189
213597,184332
213637,184688
213678,184694
213688,184869
213697,184848
213706,184825
213717,184807
213727,184836
213736,184835
213746,184794
213756,184732
213766,184729
213776,184667
213786,184649
213796,184659
213806,184659
213816,184545
213826,184467
213836,184358
213846,184296
213856,184094
213866,183890
213876,183672
213887,183577
213896,183360
213906,183212
213916,183201
213926,183342
213936,183398
213946,183596
213956,183778
213967,184064
213976,184076
214019,184251
214026,184142
214068,184246
214077,184309
214117,184321
214120,184667
214129,184223
214138,184268
214147,184162
214189,184082
214197,183970
214240,184143
214246,184112
214327,184195
214330,184064
214337,183897
214346,183867
214388,183709
214396,183621
214440,183577
214448,183845
214489,184162
214496,183663
214537,183591
214546,183538
214557,183588
214566,183551
214576,183550
214586,183518
214596,183455
214607,183369
214617,183344
214626,183301
214636,183286
214647,183239
214657,183206
214667,183175
214676,183197
214687,183225
214697,183283
214707,183224
214717,183196
214727,183130
214737,183053
214747,183032
214757,183065
214767,183180
214777,183258
214818,183545
214826,183635
214877,184395
214887,184413
214897,184601
214907,184729
214917,184876
214927,185090
214937,185303
214947,185523
214992,186151
214997,186074
215041,186372
215044,186787
215046,187003
215089,187236
215098,187440
215141,187038
215181,186964
215188,186540
215232,186657
215274,186340
215287,185655
215298,185445
215337,185186
215349,185379
215359,185394
215400,185367
215407,185462
215418,185454
215428,185397
215437,185461
215448,185395
215458,185453
215467,185632
215477,185725
215488,185850
215498,185918
215507,186009
215517,186032
215528,186017
215538,186039
215548,186130
215557,186093
215568,186081
215578,186135
215621,185445
215628,185729
215678,185857
215688,185905
215697,185952
215707,186033
215717,186074
215727,186157
215737,186169
215747,186178
215757,186200
215768,186295
215778,186316
215788,186321
215797,186253
215808,186361
215818,186393
215828,186412
215837,186267
215848,186299
215858,186266
215868,186215
215877,186001
215888,186078
215898,186075
215978,185618
215988,185626
215997,185578
216071,185573
216075,185532
216080,185709
216119,185783
216128,185772
216139,185826
216147,185755
216188,185811
216232,186082
216239,186018
216248,186139
216288,186383
216298,186442
216307,186626
216318,186603
216327,186964
216338,186994
216348,186716
216358,186604
216367,186483
216378,186469
216388,186317
216426,186239
216438,185663
216487,185680
216498,185639
216508,185870
216518,185971
216528,186060
216538,186115
216548,186140
216557,186362
216567,186470
216578,186415
216588,186362
216598,186307
216609,186196
216619,186111
216629,186047
216639,186013
216648,185963
216658,186005
216668,185851
216678,185874
216689,185955
216699,185924
216709,185852
216719,185857
216729,185877
216739,185833
216749,185765
216759,185703
216768,185678
216778,185665
216867,185690
216909,185536
216919,185484
216929,185493
216938,185514
216979,186005
216988,185327
217028,185166
217038,185313
217090,184956
217139,184774
217148,184846
217188,184669
217231,184469
217238,184466
217288,184412
217340,184300
217348,184359
217358,184237
217369,184265
217379,184237
217389,184294
217399,184339
217408,184378
217419,184315
217429,184306
217439,184260
217448,184258
217459,184172
217469,184138
217479,184101
217488,184153
217499,184159
217509,184161
217519,184167
217528,184153
217539,184134
217549,184138
217558,184158
217569,184184
217579,184201
217619,184122
217628,184026
217679,184033
217690,183986
217698,183960
217709,183945
217719,183978
217728,183954
217739,183987
217783,183911
217790,183757
217799,183902
217839,183945
217891,183783
217900,183804
217950,183899
217992,183940
217998,184009
218040,183971
218045,183960
218049,184368
218059,184351
218101,184422
218109,184456
218152,184461
218159,184353
218170,184381
218178,184444
218189,184525
218199,184560
218209,184535
218219,184542
218229,184500
218239,184524
218248,184404
218258,184389
218268,184422
218278,184378
218288,184369
218298,184323
218308,184333
218318,184277
218328,184317
218338,184282
218348,184297
218358,184287
218368,184316
218378,184310
218422,184422
218429,184378
218468,184375
218478,184379
218489,184397
218498,184433
218508,184424
218518,184425
218528,184456
218540,184458
218550,184492
218559,184536
218602,184378
218608,184710
218650,184792
218659,184852
218702,184310
218709,184795
218719,184753
218762,185101
218770,185241
218813,185237
218848,185487
218859,185938
218901,186040
218911,186005
218952,186183
218960,185942
218969,185752
218979,185546
218990,185385
219000,185387
219010,185557
219020,185477
219030,185546
219039,185704
219049,185775
219060,185689
219070,185615
219079,185474
219089,185373
219100,185303
219110,185244
219120,185181
219130,185118
219140,185060
219150,184982
219159,184883
219170,184971
219215,184982
219219,184991
219270,185199
219280,185277
219290,185201
219300,185199
219309,185237
219319,185266
219330,185292
219340,185377
219350,185485
219359,185584
219369,185594
219379,185603
219389,185611
219399,185576
219409,185557
219452,185612
219460,185536
219509,185387
219561,185167
219569,185158
219620,184983
219661,184674
219669,184823
219714,184630
219762,184551
219769,184464
219809,184420
219821,184259
219863,183978
219866,185315
219870,183637
219879,183544
219889,183514
219899,183507
219909,183532
219919,183581
219929,183605
219939,183927
219949,184291
219959,184774
219969,185174
219979,185633
219989,185834
219999,185917
220009,185896
220019,185853
220029,185812
220072,185556
220080,185327
220130,184908
220140,184697
220149,184634
220159,184629
220169,184597
220179,184613
220189,184632
220199,184631
220209,184556
220219,184562
220229,184620
220239,184679
220249,184705
220259,184700
220269,184742
220279,184695
220289,184757
220299,184834
220309,184777
220319,184769
220329,184799
220339,184931
220349,185193
220359,185484
220369,185711
220421,185170
220430,184978
220471,184373
220481,184283
220522,184346
220530,184261
220573,184295
220577,184620
220580,184001
220591,184096
220632,184261
220640,184115
220682,183986
220689,184000
220735,183926
220741,183942
220750,184011
220791,183832
220800,183861
220810,183826
220820,183812
220830,183781
220881,183644
220890,183572
220933,183723
220942,183724
220950,183791
220960,183739
220971,183771
220980,183801
220990,183880
221000,183917
221010,183964
221020,183960
221030,183986
221040,183935
221050,183921
221060,183874
221070,183832
221080,183842
221090,183892
221100,183962
221110,184036
221120,184148
221130,184157
221140,184232
221150,184322
221160,184254
221170,184212
221211,184176
221221,184246
221271,184428
221280,184490
221290,184338
221341,184438
221351,184497
221391,184557
221400,185325
221452,186104
221460,186192
221503,186427
221511,186649
221554,187309
221562,187395
221572,187382
221613,187521
221651,187700
221660,188192
221702,188898
221710,188980
221753,189126
221760,189140
221770,189180
221780,189183
221791,189195
221800,189130
221811,189272
221820,189262
221831,189375
221840,189301
221850,189277
221861,189418
221870,189395
221880,189340
221890,189346
221901,189499
221910,189424
221920,189433
221931,189542
221940,189481
221951,189540
221960,189448
221971,189470
222011,189009
222022,189139
222061,189037
222071,188903
222080,188837
222091,188930
222100,188654
222110,188527
222120,188450
222131,188478
222140,188282
222151,188274
222160,188034
222204,187604
222211,187612
222222,187569
222262,187382
222271,187352
222281,187355
222322,187154
222330,186996
222381,186774
222391,186704
222432,186520
222471,186304
222521,185786
222533,185814
222543,185918
222583,186022
222590,185938
222601,186078
222612,186138
222621,186178
222632,186259
222641,186299
222652,186349
222661,186326
222672,186288
222681,186211
222692,186179
222701,186115
222712,186031
222721,185949
222732,185921
222741,185875
222752,185975
222761,186142
222771,186308
222814,186209
222822,186289
222831,186302
222871,185950
222881,185840
222891,185977
222902,185973
222911,185896
222921,185825
222932,185758
222942,185738
222951,185735
222961,185820
222972,185950
222981,186153
222991,186373
223001,186521
223012,186673
223021,186722
223031,186731
223041,186685
223052,186621
223061,186633
223071,186690
223081,186742
223122,186814
223125,186407
223131,187224
223143,187363
223184,187403
223192,187435
223231,187749
223275,188049
223282,187944
223323,187846
223332,187956
223341,187796
223383,187786
223392,187945
223403,188179
223452,188575
223494,188697
223502,188927
223551,190751
223561,190556
223572,190420
223581,190217
223592,190158
223601,190157
223611,190200
223653,190069
223661,190102
223713,190934
223721,190771
223732,190501
223741,190019
223751,189541
223761,189231
223771,189081
223782,189142
223791,189124
223801,189234
223811,189396
223822,189505
223831,189421
223841,189257
223851,188701
223862,187721
223871,186773
223882,186715
223891,187007
223902,187536
223911,187815
223921,188123
223931,188231
223942,188438
223951,188945
223961,190297
223971,191271
224015,194002
224021,195342
224065,197231
224072,199914
224123,192704
224132,189871
224173,189818
224181,189578
224222,185420
224232,192047
224272,193082
224322,194424
224363,196907
224373,195882
224422,187611
224465,189370
224471,189443
224521,188967
224531,189623
224542,189653
224552,189247
224561,189224
224572,189390
224583,189557
224592,189656
224602,189651
224613,189397
224622,189060
224632,188767
224642,188430
224652,188337
224662,188820
224672,189436
224682,189960
224692,189779
224702,189114
224712,188769
224722,189344
224732,190308
224743,190776
224752,190710
224762,190425
224772,189984
224817,191602
224822,191819
224865,191627
224872,190802
224883,190559
224892,190392
224903,190112
224912,189714
224922,189563
224973,190101
224982,190132
225022,190198
225063,190685
225067,189344
225072,193828
225123,203427
225173,212900
225182,213561
225233,212255
225283,210191
225326,210350
225329,190133
225333,209843
225342,209639
225352,209430
225362,209322
225373,209504
225382,209626
225392,209643
225402,209625
225412,209541
225423,209404
225432,209383
225442,209388
225452,209402
225463,209430
225472,209439
225483,209426
225492,209370
225503,209366
225512,209317
225522,209336
225532,209454
225543,209720
225552,209895
225562,209739
225572,209311
225617,210087
225623,210608
225632,210614
225673,210530
225683,210783
225692,210933
225702,211024
225712,211232
225723,211506
225732,211684
225785,212655
225793,212615
225835,213128
225843,213215
225884,213148
225893,213218
225942,213391
225983,213523
225987,210462
225994,213848
226005,213588
226055,213318
226063,213347
226114,214206
226123,214038
226164,212346
226173,211745
226182,211047
226192,210487
226202,210307
226212,210154
226222,209983
226232,210028
226242,210063
226252,209985
226262,209670
226272,209369
226282,209148
226292,209017
226303,209156
226312,209157
226322,209335
226332,209313
226342,209017
226352,208677
226362,208475
226372,208722
226415,209022
226423,208960
226466,208968
226469,214038
226473,208776
226483,208878
226493,208861
226503,208865
226512,208782
226523,208671
226533,208557
226542,208544
226553,208641
226563,208770
226573,208831
226584,208728
226593,208563
226603,208450
226613,208496
226655,208219
226662,207973
226703,208270
226714,208167
226753,207712
226763,207640
226806,207361
226814,207808
226855,207329
226863,207139
226906,206927
226915,206886
226996,206715
227003,206706
227013,206686
227055,206088
227064,206079
227073,206240
227083,206336
227093,206425
227104,206391
227113,206441
227123,206472
227134,206486
227143,206459
227153,206411
227163,206347
227173,206396
227183,206556
227193,206893
227203,207311
227213,207721
227223,208024
227234,208067
227243,208096
227253,208324
227264,208400
227307,208424
227314,208592
227323,208802
227365,208955
227368,206477
227373,208138
227384,207873
227394,207798
227403,207873
227413,208297
227424,208626
227433,208896
227443,208961
227453,208867
227463,208800
227473,208911
227483,209093
227493,209321
227504,209527
227555,209597
227597,209536
227606,209843
227644,209809
227648,208570
227655,209433
227696,209868
227700,208592
227703,211035
227715,210634
227724,210092
227765,209112
227775,209145
227784,208974
227835,209473
227878,209126
227883,209253
227934,209238
227944,209442
227953,209436
227963,209481
227974,209469
227983,209248
228034,209296
228044,209314
228053,209273
228093,209598
228104,209410
228113,209214
228123,209251
228133,209302
228144,209489
228154,209542
228163,209486
228173,209423
228184,209503
228193,209501
228203,209538
228213,209527
228224,209468
228233,209217
228243,209115
228254,209482
228263,209598
228273,209708
228283,209651
228293,209515
228304,209416
228313,209192
228323,209006
228334,208908
228343,208624
228353,208416
228363,208006
228373,207539
228417,206953
228424,207187
228434,207318
228476,206653
228485,207026
228526,206664
228536,206501
228544,206672
228586,207500
228597,207217
228639,207046
228643,207227
228687,207497
228695,207057
228745,206329
228786,206539
228797,206877
228804,207057
228847,207065
228886,207143
228895,206449
228905,206624
228954,206902
228965,206984
228974,207128
228985,207406
228994,207633
229004,207664
229014,207512
229024,207134
229034,206683
229045,206341
229054,206263
229064,206369
229074,206444
229084,206385
229095,206076
229104,205443
229115,204506
229124,203588
229134,203182
229145,202950
229155,202589
229164,202037
229174,201232
229219,206449
229223,202046
229235,203734
229286,200852
229294,201478
229304,202198
229314,202110
229325,201372
229335,200802
229344,200859
229354,201683
229397,204869
229406,201857
229414,199266
229456,201474
229464,200049
229506,200481
229548,198341
229555,204501
229565,200537
229606,203069
229614,197741
229624,191294
229665,182333
229715,175666
229724,174335
229775,167063
229784,165718
229795,165052
229804,164660
229814,163971
229824,163088
229834,162053
229844,161288
229854,160977
229865,160801
229874,160244
229885,159883
229895,159498
229904,159096
229914,158549
229925,158055
229934,157709
229944,157603
229954,157908
229965,158349
229974,158256
230019,157936
230026,159582
230035,159822
230084,160210
230095,160726
230105,161556
230114,161349
230125,161277
230134,161157
230145,160655
230154,160264
230165,160226
230205,160329
230217,160870
230226,160940
230265,162702
230306,163182
230317,163804
230359,165776
230365,166507
230415,168330
230468,170231
230508,170768
230511,160226
230516,172584
230528,172892
230534,173163
230575,176454
230586,177469
230624,178656
230628,162702
230636,183640
230645,185072
230655,186591
230666,188183
230675,189883
230685,191596
230695,193413
230705,195334
230716,197305
230726,199154
230735,201381
230746,203452
230755,205154
230766,206594
230776,207972
230785,208954
230830,210995
230834,211276
230846,211324
230898,210755
230905,210502
230915,210123
230925,209572
230935,208850
230946,208119
230955,207554
230966,207254
230975,207711
230985,208199
230996,208556
231005,208799
231015,209038
231026,209137
231035,209264
231045,209446
231055,209640
231066,209788
231075,209748
231085,209586
231095,209376
231106,209094
231115,208768
231125,208360
231136,207947
231178,206389
231185,206337
231226,204009
231269,202615
231276,202248
231327,201765
231375,200611
231386,200422
231397,200052
231437,198928
231475,199054
231479,207947
231487,199339
231496,199435
231536,199348
231585,199338
231628,199896
231634,201109
231638,201626
231646,202076
231656,202539
231696,203744
231707,203756
231715,203687
231726,203982
231736,204279
231745,204614
231756,205108
231765,205209
231776,205363
231785,205406
231796,205548
231805,205518
231816,205575
231825,205543
231836,205570
231845,205329
231856,205023
231865,205240
231876,206081
231885,206462
231896,206192
231905,205519
231916,205224
231925,205482
231936,206163
231945,206924
231955,207124
231966,206654
231975,206177
232018,207809
232025,208214
232036,208924
232087,207189
232130,205988
232135,206284
232178,208051
232186,208440
232228,208295
232236,208358
232247,208864
232287,210700
232337,208208
232345,207406
232385,200587
232426,196334
232430,207189
232438,192621
232446,192475
232488,192051
232496,192157
232506,192002
232515,191105
232525,188650
232535,186639
232545,184908
232555,183537
232565,183126
232577,183478
232586,184086
232595,184833
232607,185244
232616,184664
232627,182801
232636,181552
232647,181082
232656,181147
232667,181790
232676,181645
232686,181215
232697,181568
232706,182651
232716,183863
232727,184691
232736,184722
232747,184436
232756,183525
232767,182717
232776,182854
232822,184824
232827,184581
232836,183499
232889,181686
232927,181694
232936,181364
232987,181038
233037,179958
233047,180115
233098,178661
233147,175400
233189,174437
233192,182392
233196,172166
233206,172504
233217,172821
233226,172952
233236,172589
233281,169694
233287,169564
233298,169142
233338,169456
233346,171807
233356,172340
233366,173771
233376,175103
233386,176645
233396,179169
233406,181566
233416,184461
233426,187693
233436,190985
233446,193976
233456,197203
233466,199853
233476,202307
233486,204963
233496,207498
233506,209363
233516,210400
233526,210865
233536,211335
233546,212126
233556,212577
233566,212638
233576,212601
233627,210685
233637,210600
233646,211007
233687,212843
233697,212372
233748,204647
233796,201377
233849,202561
233857,201854
233897,200987
233946,199429
233999,195935
234007,194020
234048,196056
234098,193545
234107,192204
234117,191157
234156,189243
234167,189098
234176,188581
234186,188336
234196,188073
234206,188023
234216,188457
234226,188893
234236,189080
234246,189200
234256,189187
234266,188980
234276,188963
234286,189049
234296,188980
234306,189164
234317,189262
234326,189123
234336,189058
234346,189036
234356,188999
234367,188826
234376,188746
234419,193545
234426,189996
234437,190269
234447,190258
234487,189045
234498,188690
234507,188256
234517,187837
234527,187296
234537,186770
234547,186267
234598,184337
234608,183876
234647,183254
234686,183187
234691,189036
234699,184321
234749,186703
234789,189159
234798,190485
234838,195417
234848,196288
234857,196879
234897,199555
234908,199839
234950,199876
234954,184708
234957,200895
234968,200636
234977,200711
234987,201090
234997,200954
235007,201070
235017,201446
235027,201645
235037,201563
235047,201067
235057,200655
235067,200542
235077,200697
235088,200736
235097,200714
235107,200553
235117,200129
235127,199645
235137,199144
235147,198297
235157,197629
235167,197011
235177,196454
235219,193449
235229,192427
235237,191543
235247,190661
235289,186804
235299,185967
235307,185343
235317,184683
235327,184172
235337,183976
235347,184059
235357,183965
235367,183158
235377,181943
235387,180368
235397,178284
235407,176377
235417,174453
235427,172830
235437,171396
235447,170169
235457,169033
235509,172176
235518,173718
235527,173753
235568,175878
235620,184284
235628,187018
235669,195676
235679,197810
235721,202959
235728,203873
235771,205072
235777,204315
235787,203708
235828,203983
235838,203284
235848,202769
235897,194704
235907,195203
235917,195710
235927,195297
235937,193919
235947,191995
235957,190100
235967,189172
235977,189383
235987,189622
235997,189992
236007,189600
236017,188984
236027,188685
236037,188636
236047,189002
236090,191103
236098,191753
236107,192580
236160,195139
236167,195015
236177,195311
236188,196357
236198,197465
236208,198225
236218,198709
236228,199197
236238,199761
236248,200525
236258,201392
236268,202377
236278,203503
236287,204441
236297,204928
236307,205176
236317,205117
236327,205099
236338,205170
236348,205328
236358,205487
236368,205712
236378,205947
236423,207044
236429,207222
236469,207207
236480,207558
236489,207671
236538,208377
236549,208539
236559,208757
236601,209448
236609,209676
236661,212220
236709,213515
236719,213713
236771,214824
236779,214880
236854,215601
236868,217249
236879,217534
236928,219169
236939,219541
236988,220222
236999,220084
237008,219911
237018,219751
237028,219470
237038,219442
237048,219454
237058,220001
237068,220739
237078,221344
237089,221914
237098,222200
237108,222581
237119,222968
237128,223210
237138,223400
237148,223359
237159,223300
237168,223150
237178,222893
237223,218193
237229,222165
237271,221470
237310,222113
237318,222300
237328,222239
237338,222097
237348,221981
237358,222020
237368,222148
237378,222288
237388,222228
237398,222256
237408,222283
237418,222262
237428,222234
237438,222203
237448,222075
237458,221911
237468,221892
237478,221938
237489,221971
237531,221414
237539,221423
237549,221334
237558,221165
237600,221393
237608,221482
237649,221535
237688,221175
237731,221138
237741,220818
237748,220514
237758,220098
237798,220309
237839,220639
237843,221818
237849,218079
237858,216922
237901,213791
237910,212395
237918,211202
237928,210379
237938,209361
237948,208530
237958,208048
237969,207513
237979,206921
237989,206677
237999,205271
238009,204017
238081,202247
238084,221029
238089,202073
238099,201788
238109,201373
238119,200724
238128,199957
238138,199501
238149,199802
238159,200611
238169,201378
238179,202147
238189,202675
238199,202688
238209,202527
238219,202557
238229,202356
238239,202398
238249,203058
238259,204102
238269,204847
238279,205745
238290,206848
238299,207716
238309,208903
238319,210355
238330,211916
238339,213524
238349,214979
238359,216087
238369,216518
238379,216224
238420,216715
238470,218083
238509,216301
238519,214810
238559,212935
238563,202557
238569,200331
238609,188207
238619,188071
238661,200614
238669,201190
238720,200441
238759,198716
238799,198662
238804,217609
238811,194825
238849,186525
238891,186360
238900,186377
238949,190013
238960,189933
238969,189800
238979,189683
238989,189235
238999,188454
239010,187976
239020,187633
239030,186901
239039,185936
239049,185251
239059,184699
239069,184107
239079,183446
239090,182501
239100,181620
239110,181278
239119,180260
239130,178837
239140,178125
239150,177905
239159,177761
239169,177628
239179,177047
239219,175283
239229,175284
239270,175987
239280,176378
239290,176907
239299,177004
239309,177208
239319,177702
239330,178393
239340,179221
239350,179906
239359,180378
239369,181235
239379,182313
239389,183518
239399,184484
239439,186387
239450,187162
239490,187904
239500,188110
239540,189045
239590,191521
239671,193917
239675,178393
239680,189034
239730,187177
239739,187279
239750,189898
239790,194048
239832,194345
239839,199701
239850,199373
239859,197036
239869,195677
239879,194298
239890,192360
239900,190890
239910,190657
239919,190016
239929,188902
239939,188034
239949,187331
239960,186965
239970,186900
239980,186440
239990,186117
240000,186108
240010,185953
240020,185867
240030,185891
240040,185679
240050,185526
240091,183390
240100,182847
240110,182722
240120,182548
240130,182436
240140,181960
240150,181208
240161,180305
240171,179821
240181,179815
240191,179538
240200,178947
240210,177985
240220,177402
240230,177136
240276,176829
240282,177557
240323,178045
240330,178159
240371,178892
240380,179548
240421,180101
240425,184016
240432,181162
240441,181717
240451,182472
240461,182958
240471,183250
240480,183549
240490,183973
240500,184558
240510,184951
240521,185285
240531,185653
240541,185839
240551,186200
240560,186512
240570,186627
240580,186925
240590,187004
240601,186884
240611,186783
240621,186513
240631,186041
240640,185353
240650,184169
240660,183298
240670,183134
240681,183486
240691,184209
240701,184518
240711,184762
240720,184457
240730,183960
240740,183469
240750,182848
240761,183008
240771,183770
240813,183973
240820,184358
240830,184200
240841,184238
240851,184685
240861,185178
240871,185493
240880,185807
240890,186004
240931,186326
240940,186852
240980,187256
240992,187081
241033,188749
241042,188909
241082,186814
241090,187106
241101,188162
241111,189270
241120,190223
241130,191224
241140,191227
241150,190556
241161,189985
241171,189344
241181,189664
241191,190728
241232,193116
241241,193083
241250,193225
241261,194058
241271,195555
241281,195976
241291,196113
241301,196141
241311,196042
241321,196271
241330,196978
241341,198398
241351,199648
241361,200894
241371,202248
241381,202616
241391,202039
241400,201766
241411,201998
241421,202411
241431,203244
241440,204851
241451,207171
241461,209257
241471,209530
241480,207923
241491,205394
241501,203145
241511,202055
241520,201697
241531,202277
241541,203849
241551,205857
241560,207681
241571,208645
241662,209020
241671,208122
241722,205860
241730,205382
241773,203981
241781,203548
241791,203212
241802,203196
241812,203114
241822,203137
241832,203068
241841,202186
241851,201032
241861,200349
241871,200199
241882,200758
241892,201845
241902,203116
241912,204032
241921,204010
241931,203635
241941,203539
241951,203538
241962,203562
241972,204006
242013,204571
242022,204352
242031,204111
242041,204242
242051,204567
242061,204830
242071,204910
242082,204638
242092,204842
242102,204841
242112,204359
242121,203542
242131,202883
242141,201810
242151,201006
242162,200760
242172,200917
242182,201415
242192,202415
242201,203057
242211,202715
242221,201826
242231,200389
242241,198879
242251,197839
242262,197328
242272,197293
242316,197785
242321,197670
242373,197491
242381,197766
242423,204841
242432,196356
242473,193912
242481,193674
242492,193517
242502,193408
242512,193346
242521,193323
242532,193081
242542,193163
242552,193418
242561,193548
242572,193720
242582,193891
242592,194162
242601,194717
242612,195252
242622,195372
242632,195173
242641,195200
242652,195491
242662,195945
242672,196573
242681,197274
242692,198355
242702,199751
242712,200960
242722,202075
242732,203482
242742,205189
242752,204017
242761,203710
242772,205105
242823,203501
242831,202222
242842,201404
242852,200841
242862,200033
242872,199381
242881,202236
242892,203509
242902,203507
242912,202774
242921,201714
242932,201028
242942,200636
242952,200396
242961,200573
242972,201192
243022,204121
243032,205160
243076,207911
243083,208483
243093,208917
243132,210470
243176,212546
243182,212818
243233,209804
243241,209242
243252,208628
243262,206649
243272,203484
243281,199644
243292,196429
243302,193619
243312,190627
243321,186899
243331,183682
243342,181393
243352,179725
243361,179096
243371,176266
243381,172754
243391,175841
243402,176957
243412,175231
243422,174571
243431,173884
243441,172878
243451,172304
243461,172813
243471,173175
243481,172833
243491,172378
243501,172033
243511,171856
243521,171925
243531,172165
243541,172539
243551,172842
243561,173180
243571,173269
243614,173947
243622,174492
243632,174859
243643,174396
243653,174077
243663,174445
243672,175014
243682,175589
243725,176819
243733,177020
243741,177099
243783,177872
243824,180277
243832,180425
243842,180177
243853,179809
243863,179320
243872,178863
243882,178537
243893,178175
243903,178114
243912,178566
243923,179111
243933,179766
243943,180507
243952,181025
243963,181184
243973,181046
244013,179917
244022,179776
244033,179913
244043,179908
244053,179312
244062,178518
244073,177895
244082,177561
244092,177309
244103,177213
244112,177219
244155,178135
244162,178271
244173,178553
244183,179147
244192,180011
244203,180766
244212,181337
244222,181738
244233,181977
244243,182174
244252,182916
244262,184455
244272,182131
244282,179582
244293,178840
244303,179909
244312,181531
244323,181953
244363,181211
244366,179776
244375,173885
244383,174011
244392,175295
244434,183861
244484,190535
244494,192482
244532,197429
244543,199017
244552,200678
244562,203062
244572,204931
244582,206407
244592,207888
244602,208660
244612,208305
244622,207859
244632,207143
244642,205668
244652,203060
244662,200313
244672,197864
244682,195869
244692,194342
244702,193499
244712,191663
244722,188910
244732,185869
244742,183521
244752,182353
244762,181501
244772,180940
244815,192482
244823,178550
244832,179181
244842,180340
244852,181443
244862,182032
244872,182111
244882,181880
244892,181624
244902,181149
244912,180705
244922,180133
244932,179832
244942,179825
244952,180057
244962,180576
244972,181340
244982,181898
244992,182013
245002,181719
245012,181153
245022,180729
245032,180639
245042,181044
245086,182629
245094,182755
245134,184155
245184,187061
245193,187350
245235,180705
245278,189255
245282,189801
245323,190577
245327,181898
245332,192130
245342,192383
245352,192555
245362,192745
245372,192754
245382,192782
245392,192833
245402,193064
245412,193544
245422,194176
245432,194499
245442,194546
245452,194188
245464,193659
245474,193182
245483,193070
245493,193321
245503,193909
245513,194563
245524,194989
245534,195017
245543,194692
245553,193943
245563,193703
245573,193974
245616,195852
245622,195743
245633,195800
245643,195895
245653,195968
245663,196058
245673,196181
245683,196262
245693,196254
245703,196132
245713,196158
245723,196346
245733,196582
245743,196642
245753,196364
245763,196195
245773,196127
245783,196248
245793,196370
245803,196397
245813,196131
245823,195850
245833,195700
245877,196015
245883,196268
245923,196125
245935,196191
245978,195751
245985,195508
246025,196070
246034,196146
246043,196211
246053,196101
246063,196014
246073,195963
246083,195899
246093,195960
246103,195960
246113,196059
246123,196010
246133,196017
246143,196050
246153,196107
246163,195993
246173,195784
246183,195615
246193,195666
246203,195779
246213,196099
246223,196518
246233,196791
246243,196845
246253,196789
246263,196756
246273,196684
246283,196662
246293,196829
246303,197178
246313,197507
246323,197666
246333,197593
246343,197396
246353,197204
246363,197025
246373,197036
246425,196929
246433,196970
246443,197137
246453,197379
246463,197601
246473,197764
246483,197843
246525,198754
246567,196845
246573,199950
246664,199333
246673,199046
246683,199031
246694,199390
246703,199880
246714,200575
246723,201035
246734,201335
246743,201416
246754,201669
246763,201806
246774,201918
246783,201761
246834,202124
246843,201772
246853,201440
246864,201174
246873,200930
246883,201512
246894,202566
246903,203082
246913,203118
246923,202650
246934,202224
246943,201768
246954,201813
246963,201807
246974,202290
246983,202606
246994,203040
247003,202853
247014,202662
247023,202086
247034,201761
247044,201503
247053,201146
247064,201212
247073,201487
247083,202166
247093,202841
247104,203142
247113,202840
247123,202296
247134,201734
247143,201251
247154,201529
247163,202256
247235,203528
247244,203833
247293,203815
247337,202662
247346,204229
247354,204267
247364,204178
247374,204167
247384,204264
247394,204425
247404,204470
247414,204337
247424,204245
247434,204348
247444,204833
247454,205661
247464,206307
247474,206560
247484,206606
247494,206660
247504,206752
247514,206876
247524,207101
247534,207144
247544,207067
247554,207001
247564,206981
247574,207042
247617,207592
247624,207721
247634,207722
247644,207890
247654,208059
247665,208178
247674,208295
247684,208457
247695,208609
247704,208776
247715,208882
247724,208992
247735,209122
247744,209307
247754,209523
247764,209688
247775,209796
247784,209873
247794,209833
247804,209729
247815,209589
247824,209498
247834,209444
247844,209477
247886,210106
247894,210127
247941,209475
247946,209433
247955,209545
247964,209637
247974,209961
247984,210167
247995,210269
248005,210183
248014,210144
248024,210020
248034,209916
248073,209704
248084,209804
248095,209675
248104,209705
248115,209638
248124,209643
248135,209466
248144,209452
248155,209197
248164,209089
248174,209150
248185,209173
248195,209201
248245,208760
248297,209300
248306,209233
248315,209213
248325,209208
248334,209214
248345,209350
248354,209376
248364,209417
248375,209440
248384,209362
248394,209282
248404,209257
248415,209313
248424,209331
248434,209441
248444,209539
248455,209688
248464,209730
248474,209825
248484,209916
248527,210213
248535,209999
248544,210128
248554,210223
248565,210325
248574,210262
248585,210282
248594,210240
248604,210181
248615,210181
248624,210015
248635,209984
248644,209784
248655,209662
248664,209355
248675,209259
248684,209058
248694,208908
248705,209088
248714,209014
248724,209028
248735,209132
248744,208965
248755,209101
248764,208910
248775,208932
248816,208219
248857,208682
248865,208807
248909,208925
248916,209022
248955,208942
248966,209660
248974,209853
249024,210407
249034,210526
249044,210706
249054,210634
249065,210537
249074,210440
249085,210406
249094,210453
249105,210543
249116,210555
249125,210517
249136,210401
249145,210182
249156,210103
249165,209979
249176,210174
249216,210881
249225,210916
249235,211056
249245,211036
249256,210983
249265,210923
249276,210904
249285,210862
249296,210932
249305,210945
249316,211007
249325,211080
249336,211122
249345,211078
249356,211042
249365,210973
249376,210860
249385,210751
249396,210666
249405,210612
249416,210623
249425,210620
249435,210703
249445,210757
249456,210870
249465,210898
249476,210929
249485,210979
249495,210978
249506,210979
249515,211007
249566,211019
249616,211513
249656,211516
249668,211727
249711,211851
249715,211972
249725,211975
249736,212061
249745,212242
249755,212267
249765,212470
249775,212365
249786,212541
249795,212734
249805,212878
249815,212842
249826,212956
249835,212939
249845,212943
249855,212846
249866,212905
249875,212948
249886,213012
249896,212921
249905,213018
249915,213016
249925,213072
249935,212996
249946,212995
249955,212908
249965,212930
249975,212865
250026,212932
250036,212865
250045,212827
250056,212843
250065,212815
250075,212824
250085,212862
250095,212839
250106,212902
250115,212819
250125,212924
250135,212943
250146,212955
250155,212909
250165,213041
250175,213103
250186,213265
250195,213188
250205,213224
250215,213210
250258,213500
250266,213326
250315,213431
250329,213430
250416,212946
250467,212763
250475,212701
250485,212753
250495,212693
250505,212743
250516,212853
250525,212820
250536,212888
250545,212765
250556,212869
250565,212722
250575,212721
250586,212750
250595,212778
250605,212926
250615,212935
250626,213134
250635,213097
250645,213048
250655,213088
250666,213199
250675,213168
250686,213294
250695,213265
250705,213379
250716,213364
250725,213322
250735,213254
250746,213172
250755,213140
250765,213073
250776,213052
250817,212970
250826,212836
250836,212896
250846,212874
250856,212884
250867,212876
250876,212892
250886,212934
250896,213025
250907,213042
250916,213125
250967,213242
250977,213274
251060,213203
251067,213150
251076,213184
251087,213175
251096,213238
251106,213286
251117,213285
251126,213260
251137,213270
251146,213244
251157,213258
251166,213204
251177,213148
251220,212834
251227,213027
251237,213045
251246,213135
251257,213193
251266,213293
251277,213379
251286,213414
251297,213479
251306,213531
251317,213669
251326,213745
251337,213850
251346,213937
251357,214061
251366,214035
251376,214113
251387,214113
251396,214110
251406,214089
251416,214024
251427,213942
251436,213918
251446,213878
251456,213753
251467,213751
251476,213769
251486,213603
251496,213495
251506,213504
251517,213317
251526,213198
251537,213228
251546,213396
251557,213474
251566,213573
251617,213494
251627,213443
251669,213567
251676,213530
251719,213388
251769,213022
251777,212947
251786,212945
251797,213062
251806,213096
251816,213198
251826,213176
251837,213311
251847,213431
251857,213460
251898,213470
251907,213468
251917,213469
251926,213412
251937,213361
251946,213160
251956,213118
251967,213077
251976,213222
251987,213376
251997,213361
252007,213384
252047,213010
252057,213063
252067,213191
252076,213102
252086,213121
252096,213049
252106,212910
252116,212835
252126,212770
252136,212758
252146,212660
252156,212641
252166,212597
252176,212571
252186,212628
252196,212812
252206,212954
252216,213001
252226,213094
252237,213193
252246,213132
252256,213187
252267,213455
252276,213419
252287,213590
252296,213487
252307,213544
252316,213525
252326,213707
252336,213679
252346,213732
252356,213713
252366,213643
252377,213591
252418,213294
252427,213196
252437,213176
252447,213090
252456,213007
252467,212914
252478,212876
252487,212821
252497,212822
252546,212627
252560,212557
252604,212257
252609,212297
252617,212304
252659,211883
252667,211731
252709,211601
252717,211664
252728,211674
252737,211662
252747,211659
252758,211670
252767,211666
252778,211629
252787,211582
252797,211601
252807,211603
252850,211534
252857,211607
252867,211609
252877,211601
252887,211579
252897,211612
252908,211630
252917,211668
252927,211673
252937,211732
252947,211782
252958,211828
252967,211846
252977,211936
252988,211950
252997,212032
253007,211978
253017,211947
253027,212017
253038,211936
253047,211953
253057,212129
253068,212113
253077,212276
253087,212188
253097,212230
253108,212122
253117,212140
253127,212245
253138,212289
253147,212478
253157,212479
253167,212484
253177,212315
253219,212359
253268,212396
253278,212349
253317,212779
253368,212366
253378,212609
253420,212900
253427,212825
253437,212727
253447,212772
253457,212783
253468,212896
253477,212839
253488,212931
253497,212814
253508,212924
253517,212862
253527,212937
253538,213121
253547,213080
253557,213163
253567,213211
253577,213288
253622,213935
253630,213822
253638,213732
253648,213860
253657,213686
253668,213733
253677,213503
253688,213518
253697,213251
253707,213146
253717,212965
253727,212952
253737,212744
253747,212437
253758,212304
253767,212034
253777,212014
253788,212102
253797,212015
253807,212054
253817,211981
253827,211855
253838,211821
253847,211624
253858,211605
253867,211436
253877,211419
253887,211353
253897,211244
253908,211187
253917,211012
253959,211062
253997,210864
254007,211018
254052,211305
254059,211164
254069,211329
254112,212102
254118,211238
254128,211222
254139,211284
254148,211349
254159,211458
254168,211527
254178,211589
254189,211640
254198,211655
254208,211627
254218,211657
254228,211819
254239,211895
254248,211914
254258,211917
254269,211863
254278,211825
254288,211833
254298,211812
254309,211834
254318,211885
254328,211948
254338,212040
254348,212117
254358,212183
254368,212251
254378,212297
254419,212648
254429,212694
254439,212647
254448,212694
254459,212704
254468,212763
254479,212827
254488,212910
254498,212958
254509,212969
254518,212987
254528,212944
254538,213040
254548,213165
254558,213168
254568,213211
254578,213284
254588,213366
254598,213337
254608,213339
254652,213475
254688,213400
254700,213430
254709,213476
254750,212694
254789,213770
254801,213783
254850,213678
254859,213653
254868,213598
254879,213615
254888,213574
254898,213608
254909,213685
254918,213722
254928,213781
254938,213769
254949,213873
254958,213951
254968,213963
254978,213952
254989,214058
254998,213993
255008,213883
255018,213772
255029,213869
255038,213821
255048,213877
255058,213896
255069,214084
255078,214084
255089,214154
255099,214222
255108,214185
255118,214135
255129,214242
255139,214270
255148,214184
255158,214118
255169,214265
255178,214247
255223,214270
255230,214589
255239,214254
255249,214384
255258,214233
255269,214366
255278,214325
255288,214290
255299,214487
255350,214367
255393,214391
255428,214380
255439,214536
255449,214528
255459,214444
255468,214288
255478,214248
255488,214318
255498,214405
255508,214455
255519,214558
255528,214483
255538,214432
255549,214444
255558,214235
255568,214118
255578,214126
255622,214713
255629,214970
255638,214874
255648,214947
255659,214834
255668,214663
255678,214592
255689,214501
255698,214424
255708,214408
255719,214411
255729,214437
255738,214494
255749,214519
255760,214547
255769,214572
255779,214499
255790,214446
255799,214372
255809,214251
255820,214179
255829,214090
255839,214052
255849,213853
255859,213744
255869,213608
255880,213525
255889,213485
255900,213489
255909,213502
255920,213591
255929,213632
255939,213664
255950,213644
255991,213754
256032,214408
256041,213507
256083,213626
256093,213611
256099,213775
256109,213688
256119,213796
256129,213928
256139,213891
256150,213564
256159,213306
256169,212967
256179,212816
256189,212679
256229,211981
256239,211945
256250,211963
256259,211981
256270,212122
256279,212271
256289,212385
256299,212606
256311,212846
256318,213182
256370,214158
256462,212190
256470,212396
256479,213347
256490,213873
256499,214221
256509,213697
256520,212712
256529,211915
256539,211458
256550,211023
256559,210688
256569,210636
256580,210801
256589,210927
256599,209924
256610,209846
256619,209368
256630,208651
256639,208112
256649,208190
256660,208865
256669,209577
256679,210300
256690,211019
256699,211512
256709,212001
256720,212499
256730,213014
256739,213306
256750,213779
256759,214111
256770,214661
256779,215188
256822,216472
256830,216477
256840,216495
256849,216553
256860,216568
256869,216484
256880,216297
256889,215874
256900,215272
256909,214110
256959,210512
256969,210433
257012,210965
257021,211204
257062,211141
257069,211290
257080,211196
257089,210496
257100,209937
257109,209102
257120,208762
257129,208234
257140,207830
257149,207343
257160,208317
257169,209538
257212,211755
257221,211612
257229,211705
257239,212214
257250,212346
257259,212481
257270,213343
257279,214125
257290,215020
257299,215495
257310,215714
257319,215359
257330,215124
257339,214701
257350,214224
257359,213985
257370,213698
257379,213594
257390,213480
257399,213143
257410,212888
257419,212768
257430,211976
257439,210137
257450,209320
257461,208660
257471,209500
257480,209825
257491,210167
257500,211067
257510,211738
257521,212527
257530,213032
257540,213498
257550,214056
257561,214444
257570,214646
257610,215033
257654,214502
257662,214390
257670,214517
257712,214728
257721,215151
257731,214806
257781,214560
257790,214620
257801,214631
257810,215094
257820,214744
257831,214691
257840,215300
257850,214625
257861,214798
257870,214450
257880,214723
257891,214322
257900,214268
257911,214136
257921,214014
257930,214247
257941,214411
257950,213782
257961,213281
257970,212032
258013,212667
258020,212394
258030,213641
258040,213787
258051,213715
258060,214421
258071,212647
258080,212482
258091,212331
258100,211242
258111,211618
258120,212856
258131,212983
258140,213428
258151,213276
258160,213541
258171,213729
258180,213551
258191,212961
258200,213937
258211,211666
258220,212236
258231,212629
258240,211545
258251,211407
258260,209237
258271,208796
258311,209336
258324,210726
258330,211864
258374,211944
258381,211096
258391,210221
258465,214728
258470,214718
258481,214760
258521,215571
258531,215889
258540,216109
258551,216265
258560,216105
258571,216092
258580,216052
258591,216091
258600,216027
258611,216221
258620,216126
258631,216033
258640,215691
258650,215437
258661,215447
258670,215416
258680,215402
258691,215429
258700,215263
258711,215238
258721,215218
258730,215177
258741,215378
258750,215458
258761,215645
258770,215711
258815,214857
258822,215844
258830,215917
258840,216065
258851,216217
258860,215950
258871,215713
258880,215078
258891,214517
258900,213681
258911,213318
258920,212828
258931,212715
258940,212436
258951,212186
258960,211687
258970,211551
258981,212022
258990,212354
259000,212682
259010,213107
259020,213254
259030,212692
259073,211546
259080,212343
259090,212282
259131,211510
259173,208647
259183,207765
259233,199282
259241,198742
259250,198928
259262,199306
259271,200062
259282,201490
259291,202123
259302,202534
259311,203548
259322,204397
259331,205320
259342,206382
259351,207413
259362,209355
259371,211632
259382,213311
259391,214000
259402,214319
259411,214609
259422,214568
259431,214061
259441,212968
259452,212718
259461,211885
259472,210384
259481,209673
259492,208942
259501,207796
259512,206942
259521,206704
259532,206593
259541,206976
259552,207168
259561,207678
259572,208237
259614,210199
259622,210508
259633,210990
259641,211470
259652,211567
259661,211285
259672,210579
259681,209889
259734,208277
259743,208242
259785,205232
259792,204316
259833,209093
259841,209410
259852,209545
259860,209620
259871,209132
259883,208802
259891,208496
259901,208516
259911,208162
259922,207318
259930,205461
259972,204443
259976,210990
259984,202976
259991,201345
260001,200467
260012,200371
260021,201793
260031,203897
260042,206791
260051,210130
260062,212218
260072,213014
260083,214667
260092,215140
260132,215840
260142,215154
260151,215177
260161,214866
260171,214428
260181,214260
260191,213590
260201,212143
260211,211211
260221,210690
260231,210459
260241,210404
260251,210473
260261,210464
260271,210252
260281,209954
260291,209825
260301,209807
260311,209732
260321,209534
260331,209205
260341,209176
260351,209195
260361,209303
260371,209551
260416,210825
260424,210796
260432,210010
260441,210044
260451,210462
260461,210789
260471,211016
260481,210903
260491,210623
260501,210248
260511,209891
260521,209621
260531,209453
260541,209318
260551,209243
260561,209203
260571,209139
260581,209104
260591,209105
260633,210354
260642,210753
260683,210982
260686,209176
260692,212341
260732,211893
260743,212471
260785,212117
260793,212239
260831,212435
260863,211016
260866,210903
260873,211070
260882,211313
260892,211478
260901,211476
260911,212198
260921,210959
260931,210399
260941,210293
260951,210671
260961,210866
260971,211400
260981,211690
260991,211679
261001,211791
261011,211926
261023,212977
261032,213158
261043,213799
261052,213751
261063,213837
261072,213974
261081,214105
261093,214573
261102,215208
261112,215128
261123,215297
261132,215687
261142,215414
261152,215605
261162,216352
261172,215982
261225,214546
261231,212938
261242,211295
261252,209329
261262,208016
261272,206865
261282,207132
261292,207430
261302,209075
261312,210958
261322,212255
261332,213351
261342,214423
261352,215579
261362,216399
261372,216731
261382,217477
261461,217663
261473,215524
261484,215928
261526,218883
261532,219266
261542,219874
261552,220457
261562,219438
261572,219604
261582,219330
261632,216096
261644,215378
261653,214797
261662,214076
261672,212989
261682,211892
261692,209679
261702,207160
261712,204681
261722,202287
261732,200856
261742,199425
261752,198455
261762,197965
261772,198015
261782,198741
261792,201385
261802,204302
261812,207193
261822,208864
261832,208801
261842,208913
261852,209400
261862,210295
261872,209795
261882,209679
261892,209572
261902,209575
261912,209760
261922,209747
261932,209193
261942,208409
261952,207644
261962,207202
261972,206874
262015,209151
262024,208498
262064,208517
262073,198455
262114,212266
262122,213272
262205,216759
262217,218705
262222,218893
262233,218742
262242,218322
262252,217734
262262,216946
262272,216098
262283,215357
262292,214628
262302,214026
262312,213677
262322,213698
262332,213941
262342,214155
262352,213773
262362,213405
262372,213242
262424,216145
262433,215454
262443,214809
262452,215043
262462,215838
262472,215797
262482,215229
262492,214643
262502,214341
262512,214200
262522,214335
262532,214549
262542,214467
262552,214491
262562,214483
262572,213865
262582,213902
262592,214186
262602,214524
262612,215279
262622,216439
262632,216793
262642,214035
262652,209186
262662,207540
262673,206553
262682,208099
262693,211547
262703,214866
262713,216915
262724,217898
262765,218299
262809,220731
262847,222557
262853,222182
262863,222292
262905,220595
262913,220547
262923,220530
262933,219898
262943,219466
262953,219246
262963,219146
262973,219194
262983,219315
262993,219360
263003,219263
263013,218973
263023,218690
263033,218643
263043,218843
263053,219522
263063,220408
263073,221232
263083,221191
263093,220938
263103,220595
263113,220180
263123,219427
263133,218471
263143,217361
263153,216600
263163,216338
263173,216692
263216,221544
263223,221495
263234,221500
263244,221035
263253,219743
263263,217556
263274,215041
263283,212108
263293,209489
263303,208407
263313,207972
263323,207987
263333,207978
263343,206819
263353,205314
263363,204635
263373,205394
263383,207190
263393,208497
263403,208589
263413,207758
263463,200892
263507,198122
263514,196130
263555,193470
263563,193868
263574,194593
263583,194965
263593,194508
263603,193035
263613,190991
263656,190858
263664,193292
263675,196922
263683,200618
263693,203060
263703,204404
263713,205201
263723,206730
263733,209263
263743,211860
263753,214323
263763,215857
263773,216765
263783,217470
263793,218235
263803,218582
263813,219020
263823,219494
263833,219820
263843,219716
263853,219768
263863,220139
263873,221201
263884,222184
263893,222526
263903,222606
263913,222700
263923,222848
263933,223153
263943,223423
263953,223407
263963,223303
263973,223202
264017,223867
264024,223474
264034,223252
264043,222883
264054,222509
264063,221941
264106,221340
264110,215857
264115,218592
264124,219410
264166,219494
264175,221130
264184,221595
264194,222163
264204,222774
264214,222661
264223,221376
264234,220143
264244,218963
264255,218251
264265,217298
264303,216425
264314,211857
264323,212175
264333,212212
264344,212795
264353,213097
264364,213482
264373,213395
264383,213469
264393,212972
264403,212411
264415,212196
264424,212067
264467,212555
264475,212837
264516,211358
264525,211603
264564,212746
264575,214804
264584,214362
264594,214205
264604,214154
264614,214081
264624,214064
264634,214115
264645,214068
264654,214047
264664,213839
264674,213620
264684,213212
264694,212810
264704,212610
264714,212095
264724,211480
264734,211150
264744,210462
264754,208972
264764,208270
264774,207853
264819,208070
264825,208183
264834,206950
264844,205825
264855,206481
264864,212391
264874,208921
264884,210445
264894,209112
264904,209200
264914,208921
264924,209644
264934,209762
264944,205266
264954,203587
264964,200254
264974,198467
264984,197011
264994,195747
265004,195170
265014,194602
265024,194215
265034,194104
265044,194246
265054,194901
265064,196028
265114,201591
265125,202074
265167,201998
265175,202137
265184,202361
265226,200956
265275,197569
265284,197477
265294,197461
265304,197401
265314,197104
265324,197374
265334,197824
265344,198382
265354,198613
265364,198990
265374,199169
265384,199198
265394,199186
265404,199179
265414,199338
265424,199520
265434,199601
265444,199336
265454,199077
265464,199002
265474,199028
265484,199341
265494,199405
265504,200020
265514,200336
265524,200682
265534,201344
265544,202063
265554,202763
265565,204165
265575,204902
265617,207556
265625,208280
265635,208470
265645,209051
265654,209101
265664,209177
265674,209184
265684,209515
265694,209911
265704,210231
265714,209801
265725,209619
265775,199081
265825,196953
265836,196904
265877,199977
265919,202277
265927,207030
265935,207958
265944,208826
265954,209699
265965,210614
265975,211202
266016,211565
266025,209988
266035,209857
266045,209884
266054,210008
266064,210545
266074,211114
266084,211708
266094,212250
266104,212636
266114,212883
266125,212935
266135,212704
266145,212492
266155,212277
266164,211864
266174,211465
266184,211051
266194,210488
266205,209871
266215,209299
266225,208800
266235,208529
266245,208382
266255,208014
266265,207555
266275,207026
266286,206470
266295,205823
266305,204990
266315,204351
266325,203587
266335,202557
266345,201232
266355,199750
266365,198571
266375,197696
266427,195071
266436,194978
266480,194943
266486,195060
266494,195276
266536,196194
266579,197823
266585,198052
266595,198430
266605,198581
266615,198653
266625,198561
266635,198383
266645,198313
266655,198359
266665,198465
266675,198745
266686,199352
266696,200011
266706,200239
266716,201566
266725,201673
266735,202163
266745,202655
266755,203142
266766,203489
266776,203732
266817,202026
266826,201022
266835,200043
266845,199296
266855,198890
266865,198493
266875,198523
266885,198489
266895,198404
266905,198156
266915,197719
266925,197323
266935,197310
266945,197412
266955,197533
266966,197634
266976,197701
266986,197294
266996,196813
267005,196243
267015,195741
267025,195311
267035,194877
267045,194304
267055,193739
267065,193449
267075,193235
267086,193137
267126,192788
267135,192849
267145,193062
267190,198493
267231,195274
267236,195705
267246,196722
267298,201288
267307,202301
267316,203617
267326,204304
267336,205358
267346,205664
267356,205222
267365,204314
267375,203316
267385,200777
267395,203067
267406,204041
267416,204700
267426,204625
267436,204282
267445,203532
267455,202252
267465,201778
267475,201557
267485,202012
267495,202725
267505,203074
267515,203493
267526,203913
267536,203723
267546,203265
267556,202402
267565,201308
267575,200358
267619,195067
267626,194238
267636,193630
267645,193038
267655,192504
267665,192165
267675,192136
267686,192221
267696,192212
267706,192206
267716,192102
267725,191775
267735,191490
267745,191284
267755,191093
267766,190894
267776,190680
267786,190355
267796,190177
267805,189932
267857,189569
267869,189689
267910,189819
267922,190024
267925,190230
267971,190498
267976,190589
267987,190441
268030,190458
268073,190902
268077,190962
268121,191127
268125,190680
268127,192023
268137,191978
268147,192007
268157,192056
268166,192113
268176,192162
268186,192137
268196,192091
268207,192026
268217,192064
268227,192009
268237,191925
268246,191946
268256,191955
268266,191920
268276,191905
268287,191882
268297,191937
268307,192045
268317,192325
268326,192707
268336,193144
268346,193419
268356,193398
268367,193276
268377,193288
268418,193136
268426,193039
268436,193182
268446,193403
268456,193669
268466,194171
268476,194916
268487,195604
268497,195842
268507,195803
268517,195774
268526,195982
268570,198343
268577,198698
268621,199016
268628,197908
268637,197957
268646,198056
268657,198095
268668,198315
268676,198851
268687,199526
268697,200383
268707,201128
268717,201900
268727,202283
268768,202436
268777,202059
268787,202362
268796,202330
268807,202770
268817,203401
268827,203960
268837,204364
268847,204633
268857,204373
268866,201941
268936,204078
268948,210440
268958,210964
268998,211355
269002,198095
269008,211221
269016,211075
269026,211378
269036,211665
269047,211933
269057,212165
269067,212231
269077,212304
269086,212219
269096,212357
269107,212373
269117,212467
269127,212300
269137,212192
269147,211512
269157,211643
269166,211697
269177,211501
269226,210553
269237,210889
269246,210601
269257,210306
269266,209828
269276,209389
269287,209275
269297,209343
269307,209713
269317,210053
269326,210190
269337,210133
269347,209807
269357,209770
269366,209447
269377,209585
269387,209708
269397,209714
269406,209146
269417,208674
269427,208231
269437,208026
269446,207881
269457,208048
269467,208111
269477,208171
269486,207997
269496,208038
269507,208020
269546,207817
269590,207193
269598,206988
269677,204038
269722,209714
269728,196362
269737,194573
269747,193355
269757,192673
269768,192332
269778,192030
269788,191751
269797,191602
269808,191578
269818,191643
269828,191846
269837,192082
269848,192284
269858,192512
269868,192733
269877,193001
269888,193246
269898,193601
269908,194008
269917,194534
269927,195052
269937,195518
269947,195919
269957,196233
269968,196415
269978,196515
270020,196755
270027,197281
270037,197584
270047,197910
270057,198262
270067,198734
270077,199106
270088,199274
270098,199498
270107,199511
270117,199452
270128,199263
270138,199059
270148,198868
270157,198710
270168,198533
270178,198337
270188,198116
270197,197940
270208,197549
270218,197126
270228,196663
270269,195097
270310,194419
270347,194325
270357,194059
270367,194462
270378,194906
270388,195545
270398,196526
270407,197557
270448,198657
270451,199511
270458,202608
270468,203350
270478,204064
270487,204428
270498,204549
270508,204494
270518,204422
270527,204504
270538,205423
270548,206208
270558,206680
270567,207011
270578,207233
270588,207234
270598,206912
270607,206573
270618,206271
270628,205891
270638,205393
270648,204822
270658,204237
270668,203815
270678,203473
270687,203225
270697,202913
270708,202782
270718,202813
270727,202692
270738,202586
270748,202422
270758,202086
270767,201699
270778,201969
270819,203365
270827,203501
270837,203537
270848,203545
270858,203456
270900,203908
270903,206680
270909,204364
270950,203936
270959,204522
271009,206686
271018,206688
271027,206591
271038,206639
271047,206428
271058,206335
271068,206149
271078,206073
271087,205866
271097,205641
271108,205473
271118,205298
271128,205241
271138,205216
271148,205191
271158,205330
271167,205633
271178,206174
271221,207025
271228,207149
271238,207058
271248,206836
271258,206480
271268,206204
271278,206039
271287,205702
271298,205429
271308,205145
271318,205146
271327,205254
271338,205388
271348,205402
271358,205276
271369,205178
271379,205052
271389,205099
271399,205053
271408,205005
271418,204433
271428,203982
271438,203773
271449,203528
271459,203449
271469,203682
271479,204000
271488,204153
271498,204301
271509,204446
271552,204619
271556,206901
271562,207025
271602,205476
271612,205838
271660,203213
271703,202875
271708,202688
271758,203331
271769,203459
271779,203580
271789,203803
271799,204089
271808,204402
271819,204610
271829,204758
271839,204826
271848,204869
271859,205034
271869,205524
271879,205998
271889,206293
271899,206541
271909,206607
271919,206557
271928,206493
271939,206462
271949,206388
271959,206333
271968,206297
271979,206203
272022,206041
272029,206062
272039,205948
272048,205983
272059,205953
272069,206027
272079,206173
272089,206330
272098,206520
272109,206587
272119,206869
272129,207093
272139,207222
272149,207205
272159,207144
272168,207117
272179,206940
272189,206818
272199,206657
272208,206465
272219,206445
272229,206491
272239,206631
272248,206617
272293,206471
272300,206573
272339,206592
272349,206640
272360,206347
272448,205846
272458,205747
272469,205769
272479,205752
272488,205646
272499,205590
272509,205569
272519,205577
272528,205547
272539,205677
272549,205809
272559,205948
272568,206011
272579,206170
272589,206175
272599,206129
272608,205959
272619,205954
272629,205954
272639,205913
272648,205701
272659,205718
272669,205584
272679,205591
272688,205366
272698,205281
272708,205183
272718,205166
272729,205249
272739,205294
272748,205288
272758,205370
272768,205377
272778,205340
272824,205149
272829,205160
272838,205106
272848,205120
272858,205183
272868,205169
272879,205253
272889,205374
272898,205286
272908,205252
272919,205397
272929,205391
272969,205505
272979,205504
272989,205557
272998,205521
273009,205513
273019,205515
273029,205495
273038,205509
273049,205512
273060,205535
273104,205556
273111,205543
273120,205618
273162,205106
273169,205532
273180,205541
273225,205431
273270,205574
273279,205460
273289,205489
273300,205498
273310,205517
273319,205494
273330,205532
273340,205536
273350,205568
273359,205576
273370,205570
273380,205587
273390,205591
273399,205625
273410,205612
273420,205609
273430,205621
273439,205621
273450,205604
273460,205547
273469,205514
273480,205458
273489,205421
273499,205372
273510,205358
273519,205270
273530,205301
273539,205239
273550,205295
273559,205217
273570,205231
273580,205248
273630,205398
273640,205352
273649,205422
273660,205364
273670,205367
273679,205459
273690,205440
273700,205479
273710,205460
273720,205456
273730,205488
273740,205557
273750,205578
273759,205602
273810,205548
273819,205665
273860,205849
273871,205830
273880,205841
273920,205788
273963,205942
273969,205945
273980,205907
274019,205935
274029,205953
274039,206000
274049,205982
274059,205948
274069,205888
274079,205817
274089,205723
274099,205716
274109,205735
274119,205688
274129,205696
274139,205648
274149,205612
274159,205577
274169,205607
274179,205493
274189,205486
274199,205447
274210,205495
274219,205395
274229,205370
274239,205375
274249,205374
274259,205385
274269,205371
274279,205311
274290,205447
274299,205280
274309,205219
274319,205207
274329,205170
274339,205113
274349,205049
274359,205070
274369,205085
274379,205076
274424,204972
274430,204872
274439,204840
274449,204879
274459,204910
274504,205251
274513,205235
274520,205283
274564,205132
274569,205146
274612,205176
274620,205240
274630,205298
274640,205320
274650,205326
274661,205331
274671,205336
274680,205350
274691,205352
274701,205365
274711,205386
274720,205385
274731,205386
274741,205388
274751,205361
274760,205284
274771,205276
274822,205175
274830,205137
274840,205146
274851,205123
274861,205127
274871,205096
274880,205080
274891,205080
274901,205064
274911,205087
274920,205098
274930,205074
274941,205074
274950,205026
274961,205016
274970,204965
274981,204921
274991,204924
275001,204949
275010,204961
275020,204992
275031,205059
275040,205054
275051,205046
275060,205082
275071,205087
275080,205113
275090,205163
275100,205200
275110,205199
275121,205193
275174,204908
275182,204990
275255,205006
275259,205087
275263,205098
275273,204635
275281,204555
275321,204494
275330,204538
275340,204596
275350,204588
275360,204594
275370,204573
275380,204612
275390,204696
275400,204786
275410,204813
275420,204832
275430,204866
275440,204949
275450,205051
275460,205095
275470,205068
275480,205081
275490,205133
275500,205195
275510,205233
275520,205276
275530,205313
275540,205344
275550,205313
275560,205302
275570,205450
275621,205658
275630,205577
275640,205614
275650,205635
275660,205625
275670,205586
275680,205652
275690,205661
275700,205633
275710,205614
275720,205676
275730,205657
275740,205732
275750,205785
275760,205797
275770,205790
275780,205787
275791,205820
275800,205765
275810,205755
275820,205794
275830,205839
275840,205849
275884,205869
275891,205789
275901,205958
275944,205961
275952,206063
275960,205984
276005,206188
276012,206208
276021,206193
276098,205785
276103,207350
276110,207403
276120,207591
276130,207646
276140,207740
276150,207821
276160,207953
276170,208143
276180,208248
276190,208175
276200,208170
276210,208301
276221,208519
276231,208663
276240,208713
276252,208749
276262,208877
276270,209006
276281,209365
276291,209590
276301,209804
276311,209900
276322,209957
276332,210027
276342,210161
276351,210249
276361,210309
276371,210404
276422,210808
276431,211016
276441,211256
276451,211479
276461,211643
276471,211691
276481,211727
276491,211793
276501,211984
276511,212170
276521,212476
276531,212702
276541,212947
276551,213124
276561,213042
276571,213204
276581,213482
276591,213847
276601,214207
276652,213982
276663,213971
276704,214038
276754,213812
276762,213755
276771,213680
276813,213058
276856,213030
276861,213067
276872,213094
276881,213276
276891,213359
276902,213538
276911,213673
276921,213909
276931,214062
276942,214124
276951,214180
277001,214187
277011,214260
277023,214254
277031,214281
277042,214219
277052,214075
277062,214092
277071,214198
277083,214250
277092,214407
277101,214465
277111,214480
277121,214354
277131,214305
277141,214261
277151,214204
277161,214371
277171,214448
277182,214484
277191,214420
277201,214319
277211,214246
277221,214192
277231,214238
277241,214246
277251,214431
277261,214512
277271,214506
277282,214459
277356,214120
277362,214113
277403,213971
277413,214111
277452,214044
277454,214480
277494,214094
277498,214305
277502,214126
277513,214176
277521,214032
277532,214247
277541,214119
277552,214323
277561,214172
277572,214262
277581,214109
277591,214035
277601,214012
277642,214166
277651,214145
277661,214083
277671,213972
277681,213948
277692,214055
277701,213961
277712,214081
277721,214035
277732,214092
277741,214029
277752,213978
277761,213899
277772,213921
277781,213898
277792,213906
277801,213875
277812,213866
277821,213899
277832,213871
277841,213883
277852,213883
277862,213951
277872,213976
277882,213934
277892,213871
277902,213793
277912,213704
277922,213642
277932,213589
277942,213533
277952,213501
277962,213490
277972,213435
278012,213531
278055,213280
278063,213409
278101,213186
278144,213269
278153,213238
278162,213245
278172,213237
278182,213182
278192,213150
278202,213135
278212,213072
278222,213017
278232,212983
278242,212996
278252,213008
278262,213026
278272,213071
278282,213091
278292,213095
278302,213139
278312,213171
278322,213240
278332,213227
278342,213229
278352,213210
278362,213160
278372,213176
278417,213276
278423,213216
278432,213157
278442,213066
278452,213062
278462,213085
278472,213042
278482,213027
278492,213013
278502,213010
278512,213045
278522,213019
278532,213084
278542,213087
278552,213065
278562,213055
278572,213125
278582,213150
278592,213127
278602,213134
278612,213152
278622,213200
278632,213208
278642,213257
278652,213261
278693,213136
278702,213144
278742,213120
278783,213085
278794,213017
278802,213015
278843,212966
278854,212904
278862,212974
278872,213034
278882,213050
278893,213101
278902,213071
278912,213067
278922,213060
278933,213127
278942,212994
278952,213012
278962,212975
278973,213033
278982,212913
278992,212895
279002,212855
279013,212936
279022,212821
279032,212762
279042,212758
279053,212791
279062,212705
279072,212722
279082,212726
279093,212803
279102,212755
279112,212745
279122,212780
279133,212879
279142,212761
279152,212744
279162,212645
279173,212795
279216,212699
279223,212698
279232,212699
279242,212687
279253,212791
279262,212691
279272,212680
279282,212622
279293,212782
279342,212657
279387,212726
279393,212879
279444,212450
279493,212482
279503,212516
279513,212562
279523,212590
279533,212621
279543,212600
279553,212560
279563,212548
279573,212520
279583,212508
279593,212492
279638,212401
279645,212452
279653,212560
279663,212540
279673,212561
279683,212521
279693,212508
279703,212496
279713,212499
279723,212487
279733,212498
279743,212517
279753,212521
279763,212493
279773,212510
279783,212477
279793,212470
279803,212469
279813,212474
279823,212460
279833,212431
279843,212399
279853,212406
279863,212423
279873,212426
279883,212421
279893,212455
279903,212442
279913,212443
279923,212455
279934,212430
279943,212433
279953,212423
279963,212389
279974,212362
280056,212346
280060,212499
280065,212317
280073,212336
280126,212215
280163,212184
280174,212129
280183,212199
280194,212174
280203,212241
280213,212237
280224,212206
280233,212215
280243,212251
280254,212146
280263,212244
280274,212211
280283,212196
280294,212192
280303,212177
280314,212161
280323,212160
280334,212158
280343,212157
280354,212154
280363,212134
280374,212128
280424,212202
280433,212061
280443,211987
280454,212004
280463,211954
280474,211977
280483,211945
280494,211999
280503,211976
280514,212029
280523,211987
280534,212028
280543,211975
280554,212011
280564,212000
280573,211948
280584,211967
280593,211815
280603,211840
280613,211840
280624,211893
280633,211760
280643,211814
280653,211765
280664,211872
280708,211873
280716,211814
280724,211707
280764,211627
280775,211671
280865,211620
280873,211532
280883,211542
280893,211539
280904,211637
280914,211607
280924,211594
280933,211415
280944,211406
280954,211549
280963,211428
281005,211479
281013,211402
281024,211429
281033,211389
281045,211479
281053,211325
281064,211277
281073,211319
281083,211340
281094,211537
281103,211352
281113,211358
281124,211361
281135,211389
281143,211510
281154,211507
281164,211506
281174,211491
281183,211498
281194,211451
281204,211442
281215,211464
281224,211453
281234,211447
281244,211432
281255,211424
281264,211403
281274,211380
281324,211351
281334,211246
281345,211337
281354,211289
281365,211325
281407,211381
281415,211366
281455,211326
281465,211303
281506,211238
281556,211283
281565,211261
281574,211255
281585,211250
281594,211265
281604,211272
281647,211317
281651,211239
281655,211181
281665,211273
281674,211338
281684,211341
281695,211362
281704,211314
281714,211268
281724,211270
281735,211315
281745,211348
281754,211321
281764,211338
281775,211343
281784,211360
281795,211298
281804,211342
281815,211311
281824,211380
281834,211369
281844,211346
281855,211306
281864,211334
281874,211293
281884,211327
281894,211301
281905,211294
281914,211306
281924,211314
281935,211285
281944,211319
281954,211330
281964,211349
281975,211312
282016,211237
282024,211284
282034,211286
282044,211271
282054,211334
282096,211338
282106,211407
282146,211317
282150,211342
282155,211181
282205,211149
282214,211131
282224,211161
282234,211224
282244,211228
282255,211317
282264,211225
282275,211271
282284,211186
282295,211259
282304,211209
282314,211213
282324,211171
282335,211314
282344,211289
282354,211303
282364,211359
282375,211422
282419,211278
282424,211029
282434,211226
282445,211362
282454,211271
282464,211305
282474,211263
282484,211169
282494,211075
282505,211213
282514,211127
282524,211113
282534,211114
282545,211218
282554,211142
282564,211170
282574,211160
282584,211189
282594,211201
282604,211164
282614,211133
282625,211198
282634,211087
282644,211128
282654,211145
282664,211173
282674,211180
282684,211200
282694,211184
282705,211205
282743,211157
282754,211206
282766,211188
282809,211169
282848,211071
282855,211134
282900,211183
282905,211130
282915,211090
282925,211120
282936,211147
282945,211137
282956,211129
282965,211079
282976,211115
282985,211084
282996,211106
283005,211123
283016,211115
283025,211083
283036,211079
283045,211051
283056,211077
283065,211063
283076,211083
283085,211097
283096,211094
283105,211063
283116,211051
283125,211033
283136,211011
283145,211001
283156,211049
283165,211042
283176,211080
283220,211033
283226,211150
283236,211104
283245,211158
283256,211143
283265,211152
283276,211118
283285,211113
283296,211098
283305,211125
283316,211153
283325,211164
283336,211159
283345,211116
283356,211135
283365,211093
283376,211114
283385,211065
283396,211112
283405,211055
283416,211063
283457,210960
283468,210990
283517,210962
283526,211007
283569,210826
283576,210930
283617,210893
283620,211118
283627,210556
283666,210445
283675,210530
283685,210630
283695,210721
283706,210888
283715,210963
283725,211138
283735,211210
283746,211327
283755,211419
283765,211491
283775,211441
283786,211386
283795,211196
283805,211087
283815,210903
283826,210799
283835,210694
283845,210666
283855,210556
283866,210566
283875,210401
283885,210453
283895,210432
283906,210597
283915,210614
283925,210737
283935,210807
283946,210886
283955,210847
283965,210972
283975,211030
284017,210990
284027,210774
284036,210761
284045,210689
284056,210717
284065,210573
284075,210447
284085,210377
284095,210302
284106,210355
284115,210327
284166,210663
284178,210751
284228,210594
284236,210584
284281,210429
284287,210300
284295,210299
284306,210336
284315,210185
284325,210248
284335,210336
284346,210464
284355,210324
284365,210341
284376,210519
284385,210393
284428,210480
284435,210457
284446,210442
284455,210470
284466,210538
284475,210433
284485,210410
284496,210498
284505,210379
284515,210361
284525,210357
284535,210332
284546,210354
284555,210222
284565,210102
284575,210108
284586,210104
284595,210026
284605,209991
284615,209981
284626,209967
284635,209896
284645,209843
284656,209876
284665,209862
284676,209896
284686,209931
284695,209924
284706,209974
284716,209990
284726,210005
284737,210018
284746,210023
284756,209999
284766,210002
284777,210039
284861,209965
284865,209802
284870,210357
284877,209940
284927,210001
284980,210017
284989,210005
285031,209970
285035,209862
285038,209824
285080,209990
285086,209874
285096,209880
285106,210024
285116,209895
285127,209989
285137,210015
285145,210073
285157,210040
285166,210042
285177,210041
285220,210106
285226,210063
285237,210013
285246,210038
285255,209969
285267,210022
285277,210033
285285,210059
285296,209958
285306,210032
285316,210051
285327,209986
285370,209950
285378,210002
285387,209995
285397,209940
285406,209946
285417,209960
285426,209997
285437,209988
285446,209977
285457,209977
285466,209976
285477,209973
285486,209929
285496,209918
285506,209861
285516,209895
285526,209893
285536,209904
285546,209915
285556,209906
285566,209937
285576,209936
285587,209930
285628,209812
285638,209853
285647,209756
285657,209859
285666,209858
285676,209868
285687,209945
285696,209888
285706,209841
285716,209822
285727,209851
285736,209764
285746,209713
285757,209742
285766,209676
285777,209728
285786,209698
285797,209805
285806,209778
285817,209870
285826,209820
285867,209758
285876,209739
285918,209826
285957,209700
285966,209730
285976,209694
285987,209856
285996,209695
286006,209645
286050,209701
286057,209648
286066,209719
286076,209684
286086,209681
286097,209729
286106,209649
286117,209709
286126,209648
286137,209734
286146,209655
286157,209735
286166,209691
286177,209705
286186,209696
286197,209734
286207,209736
286216,209722
286227,209739
286236,209703
286246,209728
286257,209734
286266,209767
286277,209742
286286,209773
286298,209731
286307,209717
286317,209751
286327,209752
286338,209778
286347,209770
286357,209772
286367,209760
286377,209793
286430,209793
286437,209647
286447,209713
286457,209745
286467,209696
286507,209790
286550,209741
286559,209782
286599,209805
286609,209766
286617,209788
286628,209754
286637,209787
286647,209770
286658,209743
286667,209760
286677,209714
286687,209689
286697,209719
286708,209720
286717,209729
286727,209726
286737,209702
286748,209695
286757,209684
286767,209624
286777,209642
286819,209615
286827,209672
286837,209647
286847,209550
286858,209609
286867,209663
286878,209579
286887,209511
286898,209518
286907,209566
286917,209400
286927,209537
286937,209358
286948,209371
286957,209367
286967,209436
286977,209420
286988,209532
286997,209576
287007,209613
287017,209534
287028,209538
287037,209573
287047,209576
287057,209528
287068,209506
287077,209518
287088,209592
287097,209639
287107,209623
287151,209605
287157,209785
287201,209661
287209,209651
287248,209398
287257,209243
287309,208770
287317,208734
287360,209002
287367,209053
287377,209099
287387,209145
287397,209263
287407,209212
287418,209405
287427,209474
287437,209570
287447,209631
287457,209625
287467,209585
287477,209660
287487,209661
287497,209784
287507,209829
287517,209845
287527,209885
287537,209853
287547,209835
287558,210030
287567,209914
287577,209821
287619,209871
287629,209933
287639,209931
287648,209927
287657,209781
287667,209791
287677,209721
287688,209892
287697,209791
287707,209849
287717,209813
287727,209853
287737,209851
287747,209852
287758,209974
287767,209959
287777,209999
287788,210097
287797,210079
287807,210099
287817,210170
287827,210178
287838,210189
287847,210201
287857,210169
287902,210051
287909,210042
287959,209606
287968,209625
288012,209814
288059,209771
288068,209613
288079,209618
288088,209580
288098,209567
288109,209563
288118,209539
288128,209499
288138,209474
288149,209421
288158,209396
288168,209387
288178,209403
288189,209354
288198,209331
288208,209276
288218,209225
288228,209218
288238,209168
288248,209086
288258,209049
288269,208990
288278,208954
288288,208995
288298,208981
288308,208953
288319,208931
288328,208936
288339,208927
288348,208929
288359,208941
288368,208951
288379,208941
288430,208892
288439,208849
288448,208826
288458,208823
288469,208850
288479,208842
288488,208830
288499,208875
288508,208959
288551,209133
288558,209202
288599,209191
288608,209374
288619,209438
288664,209399
288668,209493
288679,209481
288689,209533
288698,209557
288708,209515
288718,209478
288728,209531
288738,209531
288748,209566
288758,209544
288768,209588
288778,209545
288829,209633
288839,209671
288848,209647
288858,209543
288869,209593
288878,209562
288889,209610
288898,209582
288908,209597
288918,209552
288928,209647
288938,209588
288948,209537
288958,209582
288968,209554
288978,209554
288988,209489
288998,209580
289008,209534
289019,209699
289028,209621
289039,209652
289049,209626
289058,209522
289069,209628
289078,209563
289088,209550
289098,209615
289108,209592
289118,209549
289128,209632
289138,209531
289149,209627
289158,209550
289197,209555
289208,209520
289250,209587
289260,209597
289269,209588
289320,209511
289330,209533
289370,209695
289379,209507
289388,209421
289399,209528
289409,209546
289419,209547
289428,209436
289438,209393
289449,209550
289488,209481
289500,209352
289508,209420
289518,209395
289529,209453
289539,209485
289549,209482
289559,209447
289569,209466
289578,209442
289589,209504
289628,209395
289631,209252
289639,209271
289678,209383
289682,209214
289690,209369
289700,209415
289709,209320
289719,209337
289729,209340
289739,209369
289750,209350
289759,209359
289770,209297
289779,209314
289789,209374
289799,209358
289809,209326
289819,209321
289830,209310
289839,209298
289849,209286
289860,209286
289869,209286
289880,209308
289890,209306
289899,209323
289910,209320
289919,209275
289929,209257
289940,209216
289949,209253
289959,209242
289970,209243
289979,209232
290020,209278
290030,209167
290041,209186
290049,209190
290059,209201
290070,209181
290079,209116
290089,209105
290099,209121
290109,209160
290120,209143
290129,209103
290139,209155
290150,209073
290159,208987
290169,209099
290180,208992
290190,208972
290199,208972
290244,209008
290251,209116
290300,209136
290352,208906
290361,208984
290370,208973
290379,208913
290390,208932
290399,208916
290442,208894
290451,209103
290460,208944
290470,208889
290479,208842
290490,208940
290499,208879
290509,208858
290519,208830
290529,208911
290539,208910
290549,208872
290559,208790
290569,208839
290579,208758
290590,208896
290599,208831
290609,208746
290620,208888
290629,208780
290639,208771
290649,208748
290659,208753
290670,208775
290679,208704
290689,208711
290699,208706
290709,208667
290720,208812
290729,208658
290739,208559
290750,208668
290759,208602
290769,208593
290811,208680
290822,208529
290832,208468
290839,208336
290849,208291
290860,208520
290904,208896
290910,208862
290949,209043
290953,208746
290961,209416
290999,209471
291003,208771
291012,209706
291053,209705
291061,209531
291070,209639
291079,209711
291090,209762
291099,209757
291109,209824
291120,209838
291130,209782
291139,209582
291150,209337
291160,209091
291169,208941
291215,208914
291220,208973
291230,209036
291240,208911
291250,209018
291260,208941
291271,208864
291281,208835
291290,208718
291300,208654
291311,208630
291320,208639
291330,208600
291341,208551
291350,208597
291360,208718
291370,208744
291380,208650
291391,208444
291400,208295
291410,208230
291421,208239
291430,208284
291440,208387
291450,208443
291460,208447
291471,208364
291480,208393
291490,208385
291501,208351
291510,208297
291520,208257
291531,208109
291540,207972
291551,207846
291602,207491
291611,207423
291654,207664
291660,207867
291670,207651
291712,207919
291721,207873
291730,207895
291771,207910
291780,207930
291791,207998
291800,207935
291810,208095
291820,208107
291830,208216
291840,208244
291850,208203
291860,208181
291871,208228
291881,208242
291890,208266
291900,208236
291910,208194
291920,208188
291930,208113
291940,208111
291951,208207
291960,208222
291970,208213
292012,208339
292020,208232
292032,208177
292040,208282
292050,208231
292060,208294
292070,208247
292080,208309
292090,208281
292101,208400
292110,208387
292120,208442
292130,208398
292140,208328
292151,208490
292160,208417
292170,208359
292181,208518
292190,208474
292200,208433
292210,208517
292220,208484
292231,208623
292240,208530
292250,208480
292261,208566
292270,208505
292317,208614
292321,208630
292332,208615
292373,208850
292382,208786
292432,208630
292442,208708
292452,208703
292492,208769
292501,208847
292510,208694
292520,208694
292530,208740
292541,208854
292550,208737
292560,208797
292571,208873
292580,208773
292590,208900
292600,208817
292610,208903
292621,208894
292630,208809
292641,208843
292650,208842
292661,208806
292670,208793
292681,208782
292691,208797
292702,208832
292711,208810
292720,208813
292731,208820
292742,208847
292751,208854
292761,208880
292771,208906
292823,208962
292831,208922
292842,208878
292851,208883
292862,208876
292871,208854
292881,208881
292891,208916
292901,208903
292912,208890
292921,208895
292931,208889
292941,208850
292952,208843
292961,208840
292971,208857
292982,208847
292991,208839
293034,208824
293043,208938
293053,208894
293092,208868
293137,208921
293142,208902
293233,208878
293283,208885
293293,208831
293303,208875
293311,208923
293321,208841
293331,208911
293341,208856
293352,208852
293361,208809
293371,208844
293382,208802
293392,208895
293401,208847
293412,208921
293421,208929
293432,208927
293441,208869
293451,208835
293462,208876
293472,208886
293481,208876
293491,208826
293502,208857
293512,208872
293522,208889
293531,208860
293541,208845
293551,208826
293561,208868
293571,208788
293623,208725
293634,208852
293642,208824
293652,208875
293661,208844
293671,208772
293681,208813
293691,208732
293702,208833
293711,208750
293722,208820
293732,208830
293741,208762
293751,208695
293761,208746
293771,208663
293782,208790
293791,208692
293836,208652
293841,208609
293851,208668
293862,208668
293871,208621
293882,208761
293892,208583
293902,208759
293912,208736
293922,208624
293932,208746
293973,208597
293982,208602
293992,208694
294001,208598
294012,208763
294022,208761
294032,208759
294041,208560
294052,208794
294061,208575
294072,208604
294082,208619
294120,208644
294123,208790
294133,208602
294174,208697
294185,208626
294192,208792
294202,208628
294244,208746
294252,208754
294261,208751
294272,208723
294282,208738
294292,208702
294302,208711
294312,208717
294322,208683
294332,208710
294342,208714
294352,208693
294362,208658
294372,208695
294382,208708
294392,208704
294402,208727
294444,208669
294454,208661
294463,208777
294472,208674
294482,208705
294493,208681
294502,208664
294513,208704
294522,208687
294532,208708
294543,208696
294552,208678
294562,208670
294572,208724
294582,208724
294592,208696
294602,208714
294612,208712
294622,208727
294632,208682
294642,208703
294652,208677
294662,208695
294672,208703
294682,208677
294692,208694
294702,208731
294712,208700
294722,208662
294732,208654
294742,208721
294752,208667
294794,208789
294833,208779
294843,208705
294853,208675
294864,208749
294904,208600
294914,208559
294957,208704
294964,208765
295002,208938
295012,208977
295022,208867
295032,208844
295042,208787
295053,208749
295062,208717
295072,208641
295082,208595
295093,208631
295102,208610
295112,208547
295123,208649
295132,208557
295142,208592
295152,208534
295163,208598
295172,208557
295217,208584
295223,208602
295233,208528
295243,208576
295252,208556
295263,208662
295272,208557
295282,208471
295293,208593
295302,208504
295312,208501
295322,208533
295332,208489
295343,208626
295352,208440
295363,208614
295372,208515
295382,208436
295392,208526
295402,208498
295412,208470
295423,208636
295432,208435
295442,208462
295452,208422
295463,208568
295472,208432
295483,208517
295493,208491
295502,208345
295544,208396
295585,208501
295594,208448
295634,208396
295645,208335
295654,208507
295703,208297
295712,208397
295722,208432
295732,208447
295743,208429
295752,208451
295763,208439
295774,208455
295783,208437
295793,208457
295803,208431
295813,208466
295823,208450
295833,208446
295843,208458
295853,208466
295863,208429
295873,208434
295883,208424
295893,208471
295904,208441
295913,208444
295923,208457
295933,208410
295943,208444
295954,208434
295963,208455
295973,208466
296024,208405
296035,208459
296044,208489
296054,208445
296064,208464
296073,208457
296084,208456
296094,208429
296103,208413
296113,208423
296123,208446
296133,208449
296143,208447
296153,208474
296163,208495
296173,208511
296183,208486
296193,208483
296243,208388
296285,208551
296295,208476
296304,208368
296345,208414
296387,208464
296428,208401
296431,208456
296437,208581
296443,208613
296454,208486
296464,208491
296474,208498
296483,208454
296493,208502
296504,208516
296513,208520
296524,208512
296533,208500
296543,208516
296553,208544
296563,208572
296573,208573
296583,208512
296594,208533
296603,208494
296613,208469
296624,208537
296633,208500
296644,208556
296653,208577
296663,208503
296674,208533
296683,208488
296693,208456
296703,208428
296714,208534
296723,208500
296733,208464
296744,208509
296753,208454
296763,208484
296773,208406
296823,208243
296835,208377
296844,208313
296853,208215
296864,208356
296873,208232
296883,208277
296935,208284
296978,208314
296985,208019
297035,208229
297043,208231
297053,208308
297063,208229
297074,208336
297083,208169
297094,208253
297103,208181
297114,208259
297123,208219
297134,208307
297144,208304
297153,208106
297164,208216
297173,208109
297221,208089
297225,208146
297234,208074
297245,208086
297253,208117
297264,208193
297273,208173
297283,208041
297294,208175
297303,208015
297314,208166
297323,208067
297334,208147
297343,208038
297354,208109
297364,208091
297373,208111
297384,208153
297393,208153
297404,208153
297414,208072
297423,208077
297434,208122
297443,208133
297454,208132
297465,208157
297474,208153
297484,208203
297494,208173
297504,208097
297514,208074
297524,208043
297534,208030
297585,208005
297635,208057
297644,207965
297687,208044
297692,208038
297695,207994
297705,207967
297745,207983
297754,207962
297765,207944
297774,207951
297784,207956
297794,207950
297804,207942
297814,207986
297824,208024
297834,208021
297844,208011
297854,208038
297865,207969
297874,207958
297885,207940
297895,207933
297904,207928
297914,207973
297925,207962
297934,207928
297944,207965
297954,207920
297964,207867
297975,207892
298016,207974
298024,207929
298035,207787
298044,207889
298055,207904
298064,207966
298074,207891
298085,207823
298094,207860
298105,207826
298114,207871
298125,207750
298135,207752
298185,207822
298194,207861
298204,207877
298214,207895
298224,207852
298234,207900
298244,207896
298255,207904
298265,207863
298274,207858
298284,207890
298294,207890
298337,207888
298345,207778
298355,207913
298398,207868
298405,207958
298449,207918
298455,207894
298467,207887
298474,207891
298484,207876
298535,207904
298546,207948
298556,207918
298564,207851
298574,207930
298585,208096
298594,208026
298605,208084
298614,207971
298625,208023
298634,207973
298645,208057
298654,207941
298665,207961
298675,207888
298684,207751
298695,207787
298704,207712
298714,207668
298725,207845
298734,207815
298745,207898
298754,207736
298764,207737
298775,207867
298825,207763
298834,207858
298878,207759
298885,207883
298895,207836
298904,207682
298914,207666
298925,207761
298934,207641
298945,207746
298954,207700
298965,207877
299008,208044
299015,208139
299025,208122
299075,207910
299118,207878
299126,207946
299137,207877
299144,207904
299184,207966
299195,208038
299206,208073
299215,208117
299259,208210
299267,208280
299275,208304
299285,208292
299295,208237
299305,208241
299316,208227
299325,208242
299335,208272
299346,208217
299355,208240
299366,208231
299375,208237
299385,208230
299396,208162
299405,208157
299415,208170
299425,208160
299436,208135
299445,208126
299455,208165
299466,208130
299475,208136
299485,208125
299495,208098
299505,208088
299516,208078
299526,208072
299535,208067
299546,208050
299555,208089
299566,208065
299575,208084
299616,208139
299626,208195
299635,208214
299645,208126
299656,208170
299665,208131
299676,208200
299727,208303
299737,208373
299776,208333
299788,208338
299836,208317
299845,208445
299855,208433
299866,208421
299875,208473
299885,208511
299896,208514
299905,208519
299916,208513
299925,208499
299936,208485
299945,208468
299956,208538
299965,208548
299976,208576
300027,208535
300036,208604
300045,208555
300056,208561
300065,208533
300076,208556
300085,208529
300096,208557
300105,208551
300116,208575
300125,208585
300136,208607
300145,208591
300156,208615
300165,208544
300176,208608
300185,208578
300196,208644
300205,208559
300216,208616
300225,208561
300236,208618
300245,208520
300256,208585
300265,208498
300276,208560
300286,208547
300295,208461
300306,208541
300315,208384
300326,208518
300377,208389
300389,208348
300428,208384
300436,208395
300479,208477
300487,208369
300536,208392
300578,208543
300585,208330
300596,208456
300605,208372
300616,208463
300625,208404
300636,208483
300645,208469
300656,208497
300665,208481
300676,208524
300685,208410
300696,208530
300705,208556
300716,208564
300727,208567
300736,208540
300747,208546
300756,208537
300767,208533
300776,208541
300819,208657
300827,208629
300836,208537
300846,208557
300857,208567
300866,208537
300876,208570
300887,208563
300896,208539
300906,208572
300916,208561
300927,208565
300936,208584
300946,208570
300957,208586
300966,208593
300977,208597
300986,208577
300996,208595
301007,208604
301016,208563
301027,208567
301037,208548
301046,208569
301057,208543
301066,208533
301076,208523
301120,208526
301129,208454
301137,208529
301187,208510
301267,208419
301312,208479
301320,208417
301328,208483
301336,208479
301347,208488
301356,208421
301367,208467
301376,208498
301387,208431
301396,208472
301407,208468
301416,208468
301427,208442
301436,208456
301447,208466
301456,208461
301467,208451
301476,208462
301487,208468
301496,208457
301507,208452
301516,208459
301527,208444
301536,208446
