elapsed_ms,ir
105496,1045
105507,987
105516,959
105525,914
105536,907
105545,865
105555,828
105566,818
105575,790
105585,781
105596,794
105605,782
105616,780
105625,792
105635,790
105646,816
105655,807
105666,847
105675,861
105685,849
105695,867
105705,904
105715,902
105726,917
105735,899
105746,920
105755,920
105765,912
105776,922
105785,947
105795,932
105806,937
105815,951
105826,940
105835,938
105845,939
105856,944
105865,959
105875,949
105886,963
105895,947
105906,962
105915,971
105926,970
105935,967
105946,966
105955,960
105966,965
105975,961
105986,985
105996,996
106095,959
106145,1053
106155,1031
106166,1051
106175,1043
106186,1075
106195,1077
106205,1084
106216,1124
106225,1139
106235,1135
106246,1158
106255,1153
106266,1183
106275,1192
106285,1209
106296,1238
106306,1240
106315,1244
106325,1255
106335,1258
106346,1268
106355,1251
106366,1289
106375,1266
106386,1269
106395,1265
106406,1281
106415,1267
106426,1264
106435,1257
106446,1270
106455,1254
106466,1253
106475,1255
106486,1266
106495,1241
106506,1243
106515,1229
106525,1232
106536,1232
106545,1213
106556,1204
106565,1190
106576,1206
106585,1184
106596,1187
106605,1179
106616,1164
106625,1155
106636,1128
106695,1097
106785,1090
106789,1257
106798,1023
106807,1049
106815,1005
106825,1025
106836,1010
106845,1000
106856,1006
106865,988
106876,999
106885,979
106896,969
106905,953
106916,972
106925,965
106936,957
106945,953
106956,946
106965,928
106976,928
106985,919
106996,931
107005,908
107016,916
107025,888
107036,909
107045,885
107056,882
107065,908
107076,896
107085,869
107096,894
107108,891
107115,908
107125,916
107136,911
107145,923
107156,918
107165,927
107176,959
107185,946
107195,960
107205,974
107215,992
107225,1010
107235,1011
107245,1017
107255,1030
107265,1037
107275,1046
107285,1049
107295,1051
107305,1065
107360,1057
107406,1096
107417,1069
107471,1066
107476,1046
107485,1076
107496,1061
107506,1051
107516,1056
107526,1065
107536,1051
107545,1065
107556,1062
107596,1048
107605,1029
107616,1033
107625,1012
107635,1045
107645,1011
107656,1040
107666,1009
107676,1025
107685,993
107695,997
107705,997
107715,981
107725,974
107735,987
107745,978
107755,961
107765,961
107775,956
107785,943
107795,942
107805,923
107815,914
107825,906
107835,892
107845,860
107855,844
107865,815
107875,784
107885,757
107895,765
107905,711
107916,703
107925,677
107935,647
107945,625
107955,586
107965,578
107975,547
107985,517
107995,507
108005,485
108015,449
108025,438
108035,411
108045,390
108055,404
108065,383
108075,372
108085,379
108095,373
108105,367
108115,366
108125,373
108135,365
108145,382
108155,385
108165,383
108215,438
108268,485
108277,491
108337,578
108346,587
108406,657
108416,699
108425,709
108435,697
108445,713
108455,744
108465,744
108475,752
108485,784
108495,779
108505,809
108515,816
108525,822
108535,830
108545,845
108555,862
108565,880
108575,888
108585,918
108595,906
108605,931
108615,949
108625,967
108635,981
108645,975
108655,999
108665,1012
108675,1030
108685,1058
108695,1050
108749,1118
108754,1150
108765,1133
108775,1151
108786,1165
108796,1190
108806,1205
108815,1214
108826,1215
108836,1227
108846,1244
108896,1281
108947,1339
108957,1355
109010,1395
109016,1377
109024,1446
109035,1417
109045,1428
109055,1420
109066,1438
109075,1445
109085,1442
109095,1438
109196,1385
109205,1380
109215,1341
109226,1312
109235,1284
109245,1261
109255,1234
109266,1166
109275,1142
109285,1082
109295,1057
109306,1017
109316,983
109326,939
109336,915
109345,860
109355,848
109365,813
109375,797
109386,784
109396,787
109405,771
109415,785
109426,784
109436,794
109446,793
109456,828
109465,827
109475,835
109485,856
109495,871
109596,886
109605,938
109658,915
109666,937
109675,956
109727,960
109737,953
109786,827
109796,960
109806,964
109816,975
109825,986
109836,960
109846,985
109855,978
109866,982
109876,990
109886,996
109896,974
109955,1020
109966,1002
109976,1034
109985,1038
109995,1032
110006,1032
110016,1047
110025,1075
110036,1066
110046,1112
110056,1126
110065,1116
110076,1144
110086,1148
110096,1173
110105,1185
110116,1191
110126,1199
110136,1214
110145,1217
110156,1247
110166,1239
110176,1240
110185,1256
110196,1265
110206,1275
110216,1264
110225,1260
110236,1277
110246,1264
110256,1263
110265,1267
110275,1249
110328,1238
110336,1265
110386,1248
110438,1197
110445,1161
110505,1128
110555,1073
110565,1071
110575,1049
110585,1050
110595,1043
110605,1020
110615,1022
110625,1042
110635,1022
110645,1023
110655,1010
110665,1031
110675,1000
110685,1005
110695,1000
110748,976
110755,955
110765,966
110776,971
110786,985
110796,951
110805,951
110815,939
110825,934
110866,911
110875,904
110886,926
110895,899
110906,890
110916,901
110925,898
110936,911
110945,887
110955,898
110965,902
110975,897
110985,886
110995,897
111005,900
111015,913
111025,905
111036,917
111045,944
111108,992
111117,1015
111220,975
111265,1066
111277,1046
111285,1080
111295,1060
111305,1080
111316,1065
111325,1071
111336,1059
111345,1067
111356,1070
111365,1074
111376,1053
111385,1064
111396,1065
111405,1044
111416,1048
111425,1054
111436,1044
111445,1040
111456,1038
111465,1040
111476,1053
111485,1041
111496,1033
111555,1034
111565,1007
111576,1019
111585,1024
111596,1016
111605,996
111616,1008
111625,1015
111636,998
111645,1000
111656,989
111665,980
111675,976
111686,965
111695,969
111705,948
111716,939
111725,955
111735,916
111745,924
111756,912
111765,899
111776,879
111830,706
111836,736
111886,765
111895,637
111999,401
112006,424
112016,420
112026,377
112035,387
112046,364
112055,374
112065,372
112075,365
112086,374
112095,373
112105,380
112116,381
112125,395
112136,396
112145,411
112156,417
112165,433
112176,440
112185,443
112196,440
112205,472
112216,473
112267,532
112276,529
112285,559
112296,565
112356,634
112365,662
112375,672
112385,681
112396,687
112405,712
112416,714
112425,729
112436,723
112445,763
112456,758
112465,771
112476,800
112485,815
112496,817
112505,807
112558,837
112562,472
112567,865
112578,913
112638,988
112697,1053
112705,1080
112765,1157
112775,1167
112785,1179
112795,1176
112806,1203
112815,1206
112825,1235
112836,1211
112845,1238
112856,1243
112865,1272
112875,1287
112886,1284
112895,1292
112905,1316
112916,1300
112925,1325
112936,1344
112945,1349
112955,1350
112966,1360
112975,1384
112985,1388
112996,1383
113005,1399
113016,1389
113025,1403
113035,1403
113046,1414
113055,1428
113065,1428
113076,1437
113085,1437
113096,1436
113150,1442
113156,1429
113165,1424
113175,1429
113186,1427
113195,1401
113206,1410
113259,1297
113265,1280
113275,1260
113330,1104
113336,1054
113396,854
113407,767
113415,836
113425,803
113435,786
113446,780
113455,783
113466,795
113475,792
113485,791
113496,828
113555,916
113565,889
113576,896
113585,910
113595,908
113606,914
113615,918
113626,943
113635,943
113645,928
113656,921
113665,936
113675,935
113686,943
113695,954
113706,962
113715,936
113725,945
113736,960
113745,966
113755,946
113766,974
113775,965
113786,956
113795,964
113805,964
113816,969
113825,946
113835,967
113846,971
113855,958
113866,986
113875,964
113885,969
113896,984
113948,961
113998,1004
114008,975
114053,1037
114065,1020
114116,1046
114125,1115
114178,1151
114226,1173
114229,964
114235,1220
114246,1253
114255,1240
114266,1268
114275,1256
114286,1256
114295,1257
114348,1257
114356,1254
114366,1269
114375,1248
114386,1263
114395,1248
114406,1264
114415,1240
114426,1252
114435,1247
114446,1244
114455,1219
114466,1244
114475,1235
114486,1233
114495,1220
114506,1227
114515,1200
114526,1219
114535,1191
114546,1195
114555,1181
114566,1188
114575,1167
114586,1167
114595,1134
114606,1138
114615,1125
114626,1125
114635,1106
114646,1120
114655,1093
114666,1099
114675,1068
114686,1088
114695,1068
114746,1013
114796,1030
114849,929
114856,987
114865,973
114926,956
114935,941
114945,945
114955,944
114965,932
114975,935
114985,921
114995,918
115005,923
115015,907
115025,902
115035,905
115045,913
115055,917
115065,879
115075,891
115085,884
115095,892
115150,908
115156,892
115165,895
115175,900
115185,911
115195,917
115205,917
115215,922
115225,941
115235,939
115245,955
115255,957
115265,969
115275,970
115285,987
115295,986
115346,1041
115355,1029
115365,1045
115375,1052
115386,1076
115396,1075
115406,1073
115445,1090
115456,1070
115465,1069
115476,1063
115486,1080
115496,1065
115505,1071
115515,1060
115611,1062
115617,1041
115667,1058
115676,1043
115765,1033
115776,1016
115785,1033
115795,1011
115805,1008
115815,1011
115825,1005
115835,1008
115845,997
115855,991
115865,998
115875,979
115885,980
115895,969
115945,967
115955,860
115966,934
115975,945
115985,917
115995,898
116005,891
116015,863
116025,866
116035,842
116045,826
116055,794
116065,802
116075,774
116085,744
116095,729
116105,716
116115,687
116125,669
116135,638
116145,623
116155,588
116165,570
116175,529
116185,538
116195,522
116205,480
116215,478
116225,456
116235,436
116245,421
116255,422
116265,404
116275,389
116326,342
116419,802
116425,397
116486,463
116495,472
116506,486
116515,492
116526,513
116536,513
116545,525
116555,517
116565,529
116575,548
116586,564
116596,574
116606,589
116616,605
116625,596
116635,612
116645,639
116655,643
116666,656
116676,671
116686,680
116696,688
116749,751
116756,817
116765,761
116775,770
116785,771
116795,795
116805,785
116815,820
116826,814
116836,855
116845,855
116855,858
116866,881
116876,878
116886,892
116896,894
116905,906
116915,921
116925,920
116935,942
116946,965
116956,966
116966,966
116976,993
116985,989
117031,1006
117035,680
117039,1049
117046,1049
117096,1105
117147,785
117157,1206
117217,1252
117226,1284
117235,1266
117245,1260
117255,1275
117266,1300
117276,1292
117286,1323
117296,1318
117305,1335
117316,1326
117326,1347
117336,1360
117345,1358
117356,1360
117365,1374
117376,1371
117385,1385
117396,1385
117406,1399
117416,1395
117425,1399
117436,1414
117446,1420
117456,1423
117465,1433
117476,1432
117486,1437
117496,1438
117549,1444
117556,1546
117566,1462
117576,1445
117585,1442
117596,1438
117606,1454
117616,1423
117625,1410
117636,1412
117646,1400
117656,1394
117665,1382
117676,1332
117686,1319
117695,1324
117706,1265
117716,1272
117769,1050
117777,1064
117829,892
117836,883
117885,806
117897,800
117905,757
117958,871
117966,814
117975,824
117985,835
117995,829
118005,845
118015,853
118025,877
118035,887
118045,888
118055,892
118065,918
118075,904
118085,907
118095,914
118105,929
118115,924
118125,933
118135,930
118145,932
118155,936
118165,931
118175,937
118185,958
118195,938
118205,942
118215,948
118225,955
118235,946
118245,959
118255,965
118265,966
118275,954
118285,949
118295,960
118347,950
118356,983
118365,977
118375,972
118385,990
118395,984
118441,974
118450,952
118455,1087
118505,982
118516,957
118569,959
118575,998
118635,1012
118645,1047
118655,1038
118665,1066
118675,1089
118685,1079
118695,1115
118747,972
118755,1174
118765,1175
118775,1190
118785,1209
118795,1222
118806,1216
118815,1219
118825,1243
118836,1235
118845,1259
118856,1242
118865,1249
118876,1270
118885,1267
118896,1263
118905,1276
118916,1285
118925,1280
118936,1279
118945,1265
118956,1275
118965,1264
118976,1273
118985,1263
118995,1264
119006,1269
119015,1255
119025,1264
119036,1259
119045,1250
119056,1248
119065,1243
119076,1256
119085,1255
119096,1248
119149,1216
119197,1189
119206,1182
119265,1163
119276,1117
119335,1049
119347,1092
119395,1040
119406,1045
119415,1026
119425,1012
119436,1021
119445,1010
119456,1016
119465,1005
119476,1012
119485,1007
119496,1007
119551,966
119556,950
119565,967
119576,962
119585,951
119596,971
119605,953
119615,958
119625,920
119636,946
119645,935
119656,943
119665,936
119676,933
119685,916
119696,940
119705,922
119716,930
119725,887
119736,905
119745,890
119756,924
119765,892
119776,901
119785,894
119796,890
119805,867
119816,888
119825,879
119836,890
119845,865
119856,902
119865,860
119876,902
119885,878
119939,909
119947,971
119955,966
119965,951
119976,971
119985,972
119995,968
120005,998
120015,993
120025,987
120036,1007
120046,1023
120085,1035
120095,1035
120105,1067
120116,1069
120126,1061
120136,1077
120145,1066
120155,1051
120166,1073
120176,1069
120185,1072
120240,1068
120244,1021
120290,1019
120296,1061
120307,1054
120356,1060
120365,1076
120416,1037
120426,1062
120435,1049
120446,1041
120455,1037
120465,1032
120475,1039
120486,1052
120495,1039
120505,1014
120516,1019
120525,1007
120536,1024
120545,1016
120555,1017
120566,1048
120575,1032
120585,1004
120596,1021
120605,995
120616,1014
120625,996
120635,1002
120646,1000
120655,980
120665,984
120676,999
120685,969
120696,973
120748,1062
120756,955
120765,937
120775,943
120785,927
120795,918
120806,921
120815,896
120825,878
120836,897
120845,857
120855,842
120865,824
120876,830
120885,792
120896,801
120905,761
120915,763
120981,662
120986,609
120995,617
121051,508
121055,481
121065,465
121159,406
121170,398
121178,372
121229,761
121237,369
121245,359
121255,360
121265,367
121275,392
121286,381
121295,395
121306,407
121315,397
121325,418
121336,423
121345,401
121355,436
121366,457
121375,455
121386,470
121395,444
121405,479
121416,478
121425,479
121435,504
121446,512
121455,508
121466,539
121475,523
121485,542
121496,568
121551,608
121556,611
121565,625
121575,603
121585,621
121595,663
121606,662
121615,658
121626,689
121635,670
121645,691
121655,688
121706,745
121715,744
121725,776
121736,786
121788,539
121798,847
121806,860
121858,593
121917,962
121926,976
121987,1059
121995,1059
122006,1050
122015,1045
122026,1056
122035,1052
122046,1082
122055,1093
122066,1094
122075,1090
122086,1141
122095,1120
122106,1146
122115,1116
122126,1159
122135,1163
122146,1169
122155,1176
122166,1181
122176,1201
122185,1222
122196,1223
122205,1226
122216,1248
122225,1256
122235,1243
122246,1279
122255,1263
122266,1271
122275,1271
122286,1291
122295,1316
122348,1365
122354,1326
122366,1360
122375,1344
122386,1364
122395,1370
122406,1389
122415,1394
122426,1393
122475,1411
122486,1416
122531,1435
122586,1443
122636,1411
122647,1422
122656,1439
122665,1411
122676,1372
122685,1378
122696,1358
122756,1305
122767,1260
122775,1219
122785,1233
122795,1193
122805,1161
122815,1102
122825,1091
122835,1063
122845,1059
122855,988
122865,965
122875,949
122885,923
122895,895
122905,847
122915,835
122925,827
122935,827
122945,792
122955,781
122965,798
122975,784
122985,772
122995,772
123005,784
123015,782
123025,802
123035,801
123045,813
123055,822
123065,801
123075,817
123085,829
123095,833
123148,1091
123155,852
123207,912
123260,918
123265,910
123317,967
123326,914
123376,958
123385,943
123395,930
123405,943
123415,955
123425,947
123435,959
123445,939
123455,955
123465,958
123475,943
123485,965
123495,962
123550,941
123556,995
123566,991
123575,944
123585,956
123595,968
123606,961
123615,952
123625,953
123635,963
123645,980
123655,971
123665,979
123675,975
123685,978
123695,991
123705,952
123715,982
123725,993
123735,993
123745,978
123755,993
123765,997
123775,1007
123785,969
123795,1014
123805,1023
123815,1022
123825,1025
123835,1038
123845,1042
123855,1031
123866,1045
123927,1196
123976,1146
124020,1187
124030,1207
124037,1200
124085,1198
124089,993
124096,1263
124105,1234
124116,1237
124125,1234
124135,1265
124145,1238
124155,1263
124165,1279
124175,1242
124185,1252
124195,1262
124205,1266
124215,1258
124225,1219
124235,1257
124245,1247
124255,1255
124265,1229
124275,1262
124285,1245
124295,1241
124348,1261
124355,1233
124365,1244
124375,1236
124386,1225
124396,1199
124406,1189
124416,1203
124425,1210
124435,1195
124445,1208
124455,1187
124466,1182
124476,1164
124486,1173
124496,1162
124505,1184
124515,1153
124525,1155
124535,1152
124546,1126
124556,1106
124566,1117
124576,1107
124585,1113
124632,1106
124646,1095
124656,1076
124665,1069
124675,1056
124685,1061
124696,1022
124706,1044
124716,1036
124726,1043
124735,1030
124746,1014
124785,1006
124795,995
124805,978
124816,1004
124825,993
124835,994
124846,996
124856,995
124865,994
124876,980
124966,957
125010,960
125013,1069
125019,1056
125027,932
125037,940
125082,921
125096,912
125151,885
125156,894
125166,910
125175,886
125185,863
125196,900
125206,878
125216,859
125225,901
125236,869
125246,873
125256,870
125265,905
125276,899
125286,895
125296,898
125305,915
125316,896
125326,901
125336,904
125345,952
125356,929
125366,923
125376,925
125385,970
125396,954
125406,951
125416,958
125425,1001
125436,976
125446,988
125456,997
125465,1015
125476,1008
125486,1029
125496,1025
125549,1044
125555,1054
125565,1080
125575,1054
125585,1068
125637,896
125645,1110
125696,1061
125706,1060
125794,1074
125807,1065
125815,1058
125826,1050
125836,1049
125846,1042
125856,1023
125865,1057
125875,1031
125885,1048
125895,1035
125950,1053
125955,1056
125967,1040
125975,1043
125985,1037
125995,1037
126005,1047
126015,1005
126025,986
126035,1014
126045,1017
126055,1016
126065,1012
126075,1013
126085,1002
126095,1005
126105,997
126115,1004
126125,1004
126135,997
126145,990
126155,1014
126165,1009
126175,984
126185,967
126195,974
126205,973
126215,971
126225,963
126235,978
126245,963
126255,949
126265,965
126275,964
126285,964
126295,946
126349,929
126356,944
126406,962
126416,870
126500,816
126510,758
126516,720
126525,694
126535,676
126545,703
126555,660
126565,650
126575,623
126585,599
126595,580
126605,589
126615,557
126625,559
126635,524
126645,513
126655,494
126665,482
126675,459
126685,449
126695,436
126749,400
126756,427
126767,403
126775,373
126785,373
126796,355
126805,368
126816,333
126825,364
126836,345
126845,367
126856,346
126865,381
126876,342
126885,383
126896,352
126905,378
126916,364
126925,385
126936,380
126945,402
126956,396
126965,417
126976,396
126985,427
126996,434
127005,451
127016,427
127068,457
127077,482
127125,544
127179,577
127185,609
127233,577
127246,650
127256,643
127265,660
127276,638
127285,671
127296,643
127305,707
127316,665
127325,705
127335,715
127345,734
127356,714
127365,736
127376,726
127385,762
127396,745
127405,761
127416,781
127425,780
127436,784
127445,806
127456,784
127465,822
127476,803
127485,845
127496,826
127547,888
127556,875
127566,889
127575,906
127585,918
127595,931
127606,927
127615,937
127625,960
127636,954
127645,981
127656,962
127665,963
127676,990
127685,1017
127696,988
127705,998
127716,1022
127725,1053
127736,1021
127745,1034
127756,1050
127807,1054
127816,1117
127867,1153
127925,1221
127939,1199
128036,1292
128046,1288
128096,1316
128105,1327
128115,1324
128126,1319
128135,1337
128145,1359
128156,1348
128165,1383
128176,1362
128185,1357
128196,1393
128205,1387
128216,1386
128225,1375
128236,1390
128245,1427
128256,1409
128265,1405
128276,1439
128285,1438
128296,1427
128351,1448
128357,1437
128366,1433
128375,1436
128385,1426
128395,1424
128406,1434
128415,1443
128425,1422
128435,1443
128445,1432
128456,1398
128465,1387
128475,1400
128486,1402
128495,1391
128505,1399
128516,1396
128525,1380
128536,1347
128545,1315
128607,1210
128616,1171
128626,1133
128669,1049
128676,1099
128726,927
128785,805
128796,771
128805,787
128815,783
128825,799
128835,791
128846,791
128855,794
128865,796
128876,804
128885,817
128896,815
128905,796
128915,819
128926,823
128935,810
128945,857
128956,860
128965,845
128975,876
128985,883
128996,886
129005,902
129016,905
129026,901
129035,921
129046,903
129055,893
129065,926
129076,922
129085,931
129096,932
129148,914
129155,919
129166,923
129175,920
129186,903
129195,936
129204,925
129215,949
129224,932
129235,942
129246,935
129256,944
129266,937
129316,946
129325,947
129336,981
129345,964
129355,960
129365,946
129375,946
129386,966
129394,970
129405,974
129460,977
129468,977
129477,1007
129539,975
129547,978
129607,1028
129616,1006
129669,994
129677,990
129685,1022
129695,1028
129705,1038
129715,1019
129726,1050
129735,1029
129746,1050
129755,1064
129765,1046
129776,1066
129785,1053
129795,1074
129806,1101
129815,1088
129826,1117
129835,1118
129845,1120
129856,1143
129865,1149
129876,1165
129885,1183
129896,1184
129948,1272
129955,1199
129965,1231
129976,1254
129985,1253
129996,1247
130005,1253
130016,1256
130025,1271
130036,1270
130045,1280
130056,1265
130065,1281
130076,1277
130085,1284
130096,1277
130105,1287
130116,1273
130125,1293
130136,1272
130145,1275
130156,1268
130165,1273
130176,1265
130232,1283
130236,1243
130284,1247
130338,1270
130346,1227
130402,1198
130407,1189
130416,1190
130464,1195
130469,1273
130478,1165
130485,1169
130496,1179
130505,1156
130516,1128
130525,1140
130536,1138
130545,1136
130556,1116
130565,1101
130576,1102
130585,1109
130596,1084
130605,1097
130616,1096
130625,1086
130635,1083
130645,1081
130655,1040
130665,1066
130675,1064
130685,1045
130695,1028
130750,960
130757,1046
130766,1050
130775,1008
130785,1013
130795,1014
130805,1005
130815,979
130825,1019
130835,1013
130845,999
130855,969
130865,1005
130875,994
130885,978
130895,970
130905,982
130915,988
130925,983
130935,963
130945,968
130955,981
130965,979
130975,934
131086,898
131097,912
131149,899
131199,890
131205,771
131261,890
131309,879
131318,904
131326,886
131335,920
131345,921
131355,922
131365,925
131375,947
131386,971
131395,947
131405,961
131415,967
131425,984
131435,981
131445,991
131455,993
131465,1006
131475,1004
131485,1001
131495,1020
131546,1027
131559,1069
131565,1070
131575,1055
131585,1067
131595,1048
131605,1042
131615,1061
131625,1055
131635,1057
131645,1059
131655,1054
131665,1081
131675,1051
131685,1051
131695,1065
131705,1066
131715,1068
131725,1056
131735,1059
131745,1081
131755,1055
131809,1056
131813,993
131817,1055
131868,1034
131918,1070
131926,1061
131979,1040
131985,1042
131995,1013
132006,1063
132015,1050
132025,1044
132035,1029
132045,1021
132055,1037
132066,1047
132076,1050
132086,1048
132096,1040
132105,1012
132115,1018
132125,1022
132135,1017
132146,1041
132156,1036
132166,1033
132176,1017
132185,1020
132195,1001
132205,1010
132215,1010
132226,1014
132236,1018
132246,998
132256,1012
132265,998
132275,973
132285,989
132295,981
132349,946
132356,963
132365,969
132376,952
132386,958
132396,946
132406,942
132416,933
132425,911
132435,898
132445,893
132455,884
132466,886
132476,887
132486,873
132496,865
132547,756
132597,682
132647,688
132656,604
132668,547
132715,492
132767,442
132777,444
132786,412
132795,423
132805,422
132816,413
132825,406
132836,408
132846,400
132856,388
132865,392
132876,392
132886,393
132896,389
132905,397
132916,381
132926,371
132936,380
132945,397
132956,377
132966,395
132976,397
132985,413
132996,401
133006,408
133016,413
133025,438
133036,421
133046,437
133056,433
133065,465
133076,450
133086,477
133096,460
133146,487
133156,479
133166,481
133175,502
133186,527
133196,537
133206,529
133253,556
133266,655
133318,622
133370,632
133375,683
133386,686
133396,701
133406,704
133416,708
133426,716
133436,723
133446,724
133456,740
133465,752
133475,755
133485,777
133495,773
133547,870
133557,797
133567,831
133575,832
133585,846
133595,859
133605,869
133615,873
133625,884
133635,881
133645,902
133655,905
133665,919
133675,919
133685,947
133695,943
133705,959
133715,960
133725,963
133735,988
133745,1001
133755,1009
133765,977
133775,1016
133785,1018
133795,1017
133805,1024
133815,1046
133825,1048
133835,1053
133845,1063
133855,1071
133865,1084
133917,1088
133926,1133
133936,1132
133945,1118
133955,1149
133965,1140
133975,1171
133985,1174
133996,1130
134006,1179
134016,1173
134055,1223
134065,1219
134075,1222
134086,1238
134095,1233
134106,1276
134116,1240
134125,1280
134135,1284
134145,1261
134156,1272
134166,1297
134217,1086
134226,1333
134277,1433
134321,1369
134326,1171
134329,1382
134336,1390
134346,1390
134397,1419
134405,1424
134457,1429
134466,1425
134475,1454
134486,1445
134495,1432
134505,1462
134516,1463
134525,1456
134535,1447
134545,1450
134556,1454
134565,1463
134576,1445
134585,1455
134596,1445
134605,1444
134616,1428
134625,1437
134636,1434
134645,1425
134656,1399
134665,1374
134676,1374
134685,1362
134696,1351
134748,1223
134756,1271
134767,1194
134775,1177
134785,1149
134795,1150
134806,1117
134815,1093
134825,1052
134836,1053
134845,1020
134856,985
134865,982
134876,936
134885,910
134896,900
134905,867
134916,866
134925,849
134936,835
134945,802
134956,819
134965,816
135010,771
135017,809
135071,848
135076,798
135085,807
135140,781
135147,874
135200,904
135207,887
135218,886
135225,900
135235,929
135245,899
135256,944
135265,918
135276,955
135285,943
135296,942
135305,920
135316,956
135325,955
135336,956
135345,940
135356,958
135365,974
135376,959
135385,956
135396,964
135405,977
135416,966
135425,958
135436,964
135445,976
135456,967
135465,973
135476,972
135485,980
135496,980
135546,994
135556,966
135566,1005
135575,979
135586,997
135595,990
135606,983
135615,970
135625,994
135636,996
135645,980
135656,985
135665,987
135676,990
135685,963
135696,994
135705,983
135715,961
135771,965
135777,1010
135785,981
135836,1050
135847,987
135897,1035
135948,1063
135959,1078
136007,1162
136016,1114
136026,1151
136035,1163
136045,1142
136056,1172
136065,1181
136075,1178
136086,1213
136095,1187
136105,1221
136116,1233
136125,1238
136136,1246
136145,1242
136155,1240
136166,1272
136175,1244
136185,1272
136196,1267
136205,1282
136216,1289
136225,1279
136235,1267
136246,1289
136255,1255
136265,1300
136276,1282
136285,1291
136296,1279
136351,1225
136356,1239
136367,1291
136376,1261
136386,1269
136395,1242
136406,1274
136415,1225
136425,1258
136436,1270
136445,1245
136455,1250
136465,1248
136475,1231
136486,1251
136495,1223
136506,1246
136515,1225
136567,1198
136577,1222
136626,1169
136680,1145
136686,1140
136734,1113
136746,1134
136801,1084
136805,1053
136817,1052
136826,1044
136836,1070
136845,1065
136855,1056
136866,1043
136875,1048
136885,1015
136896,1060
136905,1029
136915,983
136926,1023
136935,987
136946,1029
136955,1017
136965,977
136976,1026
136985,1005
136995,972
137006,1011
137015,973
137026,1012
137035,998
137045,966
137055,968
137065,974
137075,978
137086,985
137095,956
137147,1036
137156,944
137167,961
137226,947
137235,948
137288,914
137297,872
137351,880
137448,958
137455,912
137466,922
137475,914
137486,906
137495,912
137548,945
137556,953
137565,967
137576,980
137585,990
137596,993
137605,1002
137616,998
137625,999
137636,999
137645,1027
137656,1024
137665,1030
137676,1038
137685,1043
137696,1049
137705,1055
137716,1051
137725,1073
137736,1060
137745,1066
137756,1074
137765,1068
137776,1086
137785,1065
137796,1066
137805,1085
137816,1076
137825,1096
137836,1103
137845,1082
137856,1090
137865,1089
137875,1095
137885,1097
137895,1062
138001,1020
138007,1033
138016,1049
138065,1080
138077,1059
138130,1073
138135,1054
138145,1063
138155,1069
138165,1059
138175,1037
138185,1059
138195,1067
138205,1080
138215,1040
138225,1028
138235,1055
138245,1056
138255,1022
138265,1063
138275,1048
138285,1043
138295,1014
138345,1006
138355,1023
138365,990
138375,1007
138386,1015
138396,997
138406,998
138417,1014
138425,994
138435,984
138445,996
138485,973
138495,967
138507,927
138516,954
138526,939
138535,953
138545,944
138555,929
138565,945
138576,907
138585,922
138597,892
138606,916
138615,911
138626,907
138686,823
138698,755
138748,712
138797,695
138842,583
138847,581
138857,553
138907,462
138915,498
138925,439
138935,422
138945,438
138955,403
138965,392
138975,385
138985,387
138995,381
139005,364
139015,362
139025,372
139035,354
139045,371
139055,371
139065,380
139075,364
139085,369
139095,356
139146,403
139155,405
139165,385
139175,390
139185,416
139195,423
139205,419
139215,429
139225,449
139235,434
139245,455
139255,447
139265,490
139275,469
139285,480
139295,483
139306,513
139316,523
139326,528
139336,547
139345,524
139355,528
139365,535
139375,550
139386,568
139396,583
139406,615
139452,621
139511,659
139516,675
139526,684
139576,730
139629,766
139637,752
139645,772
139655,795
139666,823
139676,820
139686,833
139696,846
139705,832
139715,835
139725,847
139735,849
139746,888
139756,890
139766,893
139776,910
139785,905
139795,903
139805,913
139815,924
139825,951
139835,946
139845,940
139855,957
139866,975
139876,998
139886,996
139896,1008
139937,1018
139945,1034
139955,1038
139965,1068
139975,1060
139986,1084
139996,1102
140006,1097
140016,1120
140025,1129
140036,1131
140046,1146
140056,1138
140065,1167
140076,1161
140086,1166
140096,1169
140105,1194
140116,1182
140126,1199
140165,1218
140196,1269
140205,1264
140215,1255
140248,1295
140257,1332
140265,1312
140276,1321
140286,1334
140296,1332
140337,1335
140345,1349
140356,1368
140366,1377
140376,1375
140385,1393
140396,1390
140406,1382
140416,1399
140425,1407
140436,1423
140446,1417
140456,1424
140488,1443
140495,1445
140506,1436
140516,1451
140526,1446
140536,1448
140545,1454
140556,1458
140566,1440
140576,1440
140585,1452
140596,1445
140606,1446
140616,1441
140625,1437
140636,1441
140646,1437
140656,1423
140666,1415
140676,1422
140686,1414
140696,1410
140736,1331
140745,1344
140755,1320
140791,1256
140796,1269
140825,1169
140836,1156
140879,1074
140883,1063
140886,1073
140898,987
140925,934
140935,925
140945,891
140955,878
140965,841
140975,842
140985,811
140995,813
141005,825
141015,792
141025,794
141035,810
141045,795
141055,797
141065,787
141075,809
141085,803
141095,811
141125,808
141135,837
141145,848
141155,844
141165,876
141175,866
141185,873
141195,898
141205,908
141215,895
141225,894
141235,906
141245,928
141255,920
141265,907
141275,915
141285,919
141295,930
141305,918
141315,938
141325,916
141335,923
141345,931
141355,941
141365,933
141375,942
141385,922
141395,943
141405,946
141415,950
141445,945
141476,935
141493,944
141499,872
141506,963
141523,951
141525,941
141535,968
141545,969
141556,961
141565,969
141576,965
141585,986
141596,967
141605,979
141616,976
141625,971
141636,965
141645,984
141656,984
141665,984
141676,980
141685,997
141696,968
141705,988
141716,982
141725,984
141736,989
141745,995
141756,978
141765,1007
141776,995
141785,1002
141796,993
141805,999
141816,1010
141825,1016
141835,1002
141846,982
141855,1004
141865,1022
141876,1013
141885,1046
141896,1037
141927,1083
141935,1056
141945,1079
141956,1084
141965,1104
141976,1118
141985,1145
141996,1129
142005,1162
142024,1154
142029,1180
142037,1174
142066,1217
142096,1217
142105,1237
142116,1237
142125,1247
142136,1263
142145,1262
142155,1235
142166,1246
142175,1256
142185,1263
142196,1270
142205,1267
142215,1270
142225,1271
142236,1244
142245,1266
142256,1261
142265,1255
142275,1248
142286,1267
142295,1247
142326,1281
142335,1237
142346,1248
142355,1245
142366,1237
142375,1242
142385,1248
142396,1224
142405,1240
142415,1233
142425,1229
142436,1220
142445,1218
142456,1212
142465,1187
142476,1199
142485,1201
142496,1199
142505,1171
142516,1189
142525,1171
142536,1173
142546,1153
142555,1158
142566,1152
142575,1128
142585,1143
142596,1113
142627,1084
142650,1086
142654,1076
142658,1127
142666,1037
142675,1069
142684,1044
142695,1057
142706,1012
142716,1033
142726,1011
142736,1037
142745,1016
142756,988
142765,1013
142805,1000
142816,985
142825,990
142835,996
142845,994
142855,974
142866,954
142876,949
142886,955
142897,948
142946,954
142955,961
142965,967
142975,948
142985,927
142995,936
143005,930
143016,946
143025,905
143035,936
143046,916
143055,928
143065,929
143076,933
143085,925
143096,934
143127,884
143135,897
143145,890
143155,901
143166,882
143175,880
143185,879
143195,880
143206,882
143215,890
143225,896
143236,888
143245,910
143256,898
143265,907
143276,888
143285,910
143296,916
143305,906
143315,926
143325,928
143336,943
143345,921
143355,964
143366,958
143375,969
143385,994
143395,976
143405,985
143416,995
143425,982
143435,994
143446,1011
143455,1026
143487,1030
143495,1059
143547,1066
143576,1068
143601,1069
143603,888
143606,1130
143615,1063
143626,1055
143636,1070
143645,1071
143656,1071
143665,1047
143675,1047
143686,1045
143695,1057
143705,1072
143716,1061
143725,1074
143735,1080
143745,1084
143755,1044
143766,1049
143775,1052
143786,1042
143795,1044
143805,1048
143816,1068
143825,1050
143835,1044
143846,1031
143855,1036
143866,1016
143875,1053
143885,1042
143896,1039
143925,1018
143935,1030
143945,1010
143955,1043
143965,1025
143976,1030
143985,1026
143995,1027
144006,1006
144015,1018
144026,1009
144035,1020
144045,1006
144056,1011
144065,996
144075,987
144086,994
144095,986
144106,977
144115,1014
144146,971
144157,929
144185,954
144196,933
144220,918
144224,927
144228,924
144235,934
144245,889
144256,885
144265,873
144275,881
144286,854
144296,845
144327,809
144335,799
144345,741
144355,752
144365,720
144376,719
144385,674
144396,675
144405,655
144416,619
144425,616
144436,594
144445,582
144456,549
144465,556
144476,525
144485,511
144496,489
144505,487
144516,457
144525,449
144536,448
144545,428
144556,395
144565,410
144576,377
144585,381
144596,382
144605,392
144616,362
144625,379
144636,356
144645,366
144656,356
144665,381
144675,366
144686,356
144695,365
144726,387
144735,394
144766,498
144775,421
144785,439
144816,441
144828,450
144835,475
144854,480
144858,478
144865,510
144876,510
144905,531
144916,532
144925,556
144936,538
144945,574
144956,565
144965,608
144976,594
144985,602
144996,605
145005,621
145015,619
145026,636
145035,659
145046,665
145055,695
145066,669
145075,702
145086,710
145095,727
145126,712
145135,746
145145,762
145155,794
145165,795
145175,808
145185,817
145195,820
145205,836
145215,855
145225,849
145235,856
145245,869
145255,893
145265,886
145275,888
145285,918
145295,928
145305,931
145315,951
145325,958
145335,958
145345,976
145355,973
145365,994
145375,996
145385,1004
145395,1031
145427,1040
145438,1048
145462,1080
145478,1082
145501,1112
145554,1176
145559,849
145568,1207
145575,1185
145585,1200
145595,1198
145605,1219
145615,1241
145625,1253
145635,1241
145645,1270
145655,1267
145665,1273
145675,1295
145685,1279
145695,1301
145705,1306
145715,1324
145725,1321
145735,1323
145745,1346
145755,1338
145765,1355
145775,1363
145785,1381
145795,1376
145805,1379
145815,1417
145825,1410
145835,1425
145845,1433
145855,1484
145865,1481
145875,1583
145885,1643
145895,1719
145926,2078
145936,2269
145945,2457
145955,2743
145965,3070
145975,3529
145985,4138
145995,5131
146005,6449
146015,8214
146025,10560
146035,13865
146045,18424
146055,24903
146065,34020
146096,74756
146107,91062
146139,140288
146168,173455
146175,170195
146185,168141
146195,168079
146205,169454
146215,171336
146225,172965
146235,174473
146245,175964
146255,177353
146265,178277
146275,179247
146285,179628
146295,179387
146326,193637
146336,191335
146346,155059
146356,131072
146365,100102
146375,84473
146385,75242
146395,75359
146405,92357
146415,107585
146425,123720
146435,140383
146445,156668
146455,173023
146465,189281
146475,205888
146485,216797
146495,216799
146505,216488
146515,216253
146525,216072
146535,216414
146545,217254
146555,218786
146565,220465
146575,220116
146586,219603
146596,180224
146606,131072
146616,81920
146625,32768
146635,18368
146645,11756
146655,8121
146666,5996
146676,4716
146707,3051
146717,2810
146785,140383
146790,1670
146797,1585
146836,1409
146846,1407
146877,1507
146885,1598
146896,1725
146905,1873
146915,2061
146927,2294
146935,2567
146945,2913
146955,3340
146966,3893
147006,9012
147015,10424
147025,11877
147036,13502
147045,15598
147055,18176
147066,21358
147076,25202
147086,30042
147095,36597
147106,45391
147115,57580
147142,72397
147157,123255
147166,132220
147176,135721
147186,135491
147195,132342
147205,127277
147215,120524
147226,112523
147236,104120
147246,95673
147256,87211
147265,78793
147275,70757
147285,63109
147295,55667
147306,47987
147316,40701
147326,34142
147336,29511
147345,25849
147356,22949
147366,21320
147376,20590
147385,20388
147396,20727
147406,21598
147416,22917
147425,24679
147436,26808
147446,29300
147456,32273
147465,35671
147476,39510
147486,44074
147496,49345
147527,69476
147535,76209
147546,82366
147556,87164
147566,86553
147576,83256
147585,79060
147596,75076
147606,69665
147616,63329
147625,56936
147644,50784
147647,44981
147676,31564
147687,28348
147714,22191
147728,21033
147735,20074
147746,19333
147756,19026
147766,18906
147776,18911
147785,19018
147796,19239
147806,19570
147816,19990
147825,20505
147836,21173
147846,21982
147856,22841
147865,23681
147876,24512
147886,25243
147896,26024
147926,28761
147935,29752
147946,30802
147956,31792
147966,32770
147976,33699
147985,34481
147996,35270
148006,36091
148016,36801
148025,37413
148036,38109
148046,38827
148056,39522
148065,40097
148075,40720
148085,41281
148095,41825
148106,42352
148116,42789
148125,43144
148135,43453
148145,43744
148155,44029
148165,44431
148175,44856
148185,45186
148195,45450
148205,45629
148215,45739
148225,45872
148257,46005
148287,45004
148296,44452
148326,42115
148336,40919
148361,39490
148386,30868
148397,28327
148405,25752
148415,22877
148425,19723
148435,16660
148445,13780
148455,11236
148465,9057
148475,7171
148485,5623
148495,4474
148505,3657
148515,3088
148525,2697
148535,2546
148545,2425
148555,2246
148565,2068
148575,1946
148585,1908
148595,1883
148605,1837
148615,1778
148625,1750
148635,1685
148645,1683
148655,1682
148665,1660
148675,1709
148685,1882
148695,2170
148725,3312
148735,3574
148745,3714
148755,3870
148765,4046
148775,4218
148785,4262
148795,4150
148805,3802
148815,3254
148825,2623
148835,2232
148845,2130
148855,2224
148865,2287
148875,2346
148886,2397
148916,2537
148945,2704
148957,2771
149007,1882
149016,2973
149025,2961
149036,2944
149045,2926
149056,2908
149065,2924
149076,2948
149085,2953
149096,2962
149126,2972
149134,2990
149145,2965
149156,2981
149165,2992
149176,3005
149185,3073
149196,3124
149205,3188
149216,3225
149225,3272
149235,3304
149246,3347
149255,3413
149265,3477
149276,3566
149285,3678
149295,3806
149305,3970
149316,4207
149325,4500
149336,4796
149345,5127
149356,5449
149365,5801
149376,6164
149385,6538
149396,6924
149405,7264
149416,7496
149425,7655
149436,7771
149445,7880
149456,7971
149465,8019
149476,7994
149485,7928
149495,7846
149528,7386
149557,6876
149566,6625
149596,5957
149626,5397
149636,5225
149645,5005
149656,4731
149665,4479
149676,4208
149685,3959
149695,3708
149705,3435
149715,3235
149726,3154
149735,3115
149745,3122
149755,3125
149766,3138
149775,3155
149785,3198
149795,3223
149806,3243
149815,3355
149825,3556
149835,3939
149846,4547
149855,5279
149865,5888
149875,6357
149886,6797
149895,7252
149926,8829
149935,9342
149946,9809
149955,10409
149965,11233
149976,12286
149985,14063
149996,16915
150005,20219
150015,23455
150025,28001
150035,35868
150046,47516
150055,58399
150065,74937
150075,90159
150085,94607
150096,93749
150105,83193
150116,65006
150125,47767
150157,22811
150165,21982
150183,24290
150187,30323
150211,41279
150225,91317
150235,107622
150245,123976
150256,110277
150265,94734
150275,81592
150286,71858
150295,75766
150327,109411
150336,106570
150345,104754
150355,104858
150366,103899
150375,103576
150385,103039
150395,101840
150406,100354
150415,99095
150425,98249
150435,97731
150446,97835
150455,98967
150465,101296
150475,105260
150485,107447
150496,111349
150505,123423
150515,138115
150526,143766
150535,147940
150545,154365
150555,167845
150565,189506
150576,205893
150585,222398
150595,190072
150606,163840
150615,126044
150625,103867
150635,88854
150645,79186
150656,70977
150665,62991
150675,56123
150686,50235
150695,45642
150726,40125
150757,44697
150765,48478
150799,60325
150806,64590
150838,84742
150845,97010
150856,107767
150865,124044
150875,140319
150886,156717
150895,173143
150905,189553
150915,205871
150925,222351
150935,218973
150945,185378
150955,163840
150965,142702
150976,124720
150985,109555
150995,106513
151005,107116
151016,115256
151025,128372
151035,140354
151046,156804
151055,173049
151065,189539
151075,205940
151085,222319
151096,238923
151128,255655
151135,255352
151145,254547
151155,253406
151166,252767
151175,252560
151185,252766
151195,252492
151205,249965
151216,243736
151225,234286
151235,224882
151246,217540
151255,212279
151266,209139
151275,205342
151285,202725
151296,201076
151305,198881
151315,192109
151326,185009
151335,178802
151346,172409
151376,186791
151387,193245
151416,222206
151426,229195
151436,230408
151446,229171
151456,221047
151465,207234
151476,194308
151486,184694
151496,178708
151506,175100
151516,165225
151526,152070
151565,104069
151576,97445
151585,93632
151595,91748
151605,90411
151615,87766
151625,83524
151635,77347
151645,69520
151655,61817
151665,55894
151697,50202
151727,68823
151736,85785
151765,140348
151776,156679
151785,173173
151796,189504
151805,206034
151815,208975
151825,214728
151835,222078
151846,215418
151855,203461
151866,189587
151875,173468
151885,151116
151896,131072
151926,98355
151936,94969
151945,94392
151955,95938
151966,99155
151975,104234
151986,111776
151995,122032
152005,133789
152015,143100
152026,149129
152035,154305
152046,158187
152055,159911
152066,159523
152075,157209
152085,153697
152096,149763
152105,146035
152116,143229
152125,142009
152136,142371
152145,143858
152156,145628
152165,147879
152176,150136
152185,149412
152196,147898
152205,147962
152216,151532
152225,160160
152236,173166
152245,189657
152256,205860
152287,225877
152296,226799
152306,227231
152355,226623
152359,149129
152365,220980
152377,221985
152386,205474
152416,114688
152425,83939
152436,70974
152445,64824
152456,64389
152465,70712
152476,86966
152485,107576
152496,124205
152505,140358
152516,156810
152525,173258
152536,189528
152545,205155
152556,202091
152565,199301
152576,197078
152585,197527
152595,198658
152606,194483
152615,167776
152626,147456
152635,98304
152646,62343
152655,45567
152666,34928
152675,28124
152686,24142
152695,22118
152728,26849
152735,34297
152746,49440
152755,74998
152766,91278
152775,107654
152785,124008
152795,140354
152805,156761
152815,173191
152825,176786
152835,175385
152845,173578
152855,159053
152865,131072
152875,81920
152885,33843
152895,18094
152905,10352
152915,6505
152947,2482
152955,2060
152988,1499
152997,1385
153026,1188
153056,1083
153066,1076
153075,1057
153085,1023
153095,1009
153127,981
153135,922
153146,945
153155,946
153165,924
153175,901
153185,888
153195,872
153205,854
153215,827
153225,820
153235,770
153245,760
153255,734
153265,706
153275,671
153285,650
153295,616
153305,600
153315,560
153325,541
153335,521
153345,513
153355,489
153365,446
153375,407
153385,388
153395,373
153405,349
153415,333
153425,327
153435,322
153445,314
153455,305
153465,302
153475,293
153485,297
153495,300
153527,315
153536,323
153545,322
153555,332
153596,374
153606,385
153638,560
153668,459
153674,458
153686,490
153695,491
153705,507
153715,516
153725,531
153735,532
153745,555
153755,567
153765,583
153775,592
153785,610
153795,631
153805,636
153815,649
153825,666
153835,677
153845,678
153855,695
153865,717
153875,720
153885,748
153895,757
153927,834
153934,812
153945,837
153955,836
153965,848
153975,860
153985,874
153995,876
154005,898
154015,903
154025,932
154035,934
154045,952
154055,963
154065,991
154075,977
154085,992
154095,998
154105,1025
154115,1036
154125,1051
154135,1060
154145,1081
154155,1088
154165,1102
154175,1115
154207,1171
154216,1173
154244,1171
154255,1231
154285,1248
154296,1255
154329,1269
154336,1281
154346,1302
154356,1312
154365,1320
154375,1319
154385,1331
154395,1346
154405,1341
154415,1338
154426,1349
154436,1365
154446,1347
154456,1352
154465,1356
154475,1350
154485,1348
154495,1346
154506,1350
154516,1361
154526,1341
154536,1313
154545,1299
154555,1296
154565,1275
154575,1265
154586,1225
154596,1226
154606,1173
154616,1140
154625,1080
154635,1052
154645,1019
154655,965
154666,938
154676,894
154685,848
154695,813
154726,736
154734,744
154745,712
154755,707
154765,712
154775,712
154785,691
154795,713
154826,746
154835,778
154865,836
154895,824
154906,799
154937,845
154946,865
154956,833
154965,852
154975,842
154986,856
154996,863
155006,865
155016,855
155025,872
155035,866
155045,857
155055,870
155066,874
155076,873
155085,870
155095,871
155127,918
155134,890
155145,883
155156,890
155166,886
155176,891
155185,901
155196,893
155206,893
155216,899
155225,906
155236,914
155246,895
155256,908
155265,913
155276,929
155286,930
155296,926
155305,942
155316,948
155326,963
155335,976
155346,971
155356,990
155366,1006
155376,1021
155385,1043
155396,1075
155406,1073
155416,1072
155425,1105
155436,1123
155446,1130
155478,1184
155505,1158
155518,1177
155544,1185
155557,1199
155565,1201
155596,1170
155605,1166
155638,1147
155646,1172
155656,1150
155666,1149
155676,1143
155686,1141
155696,1134
155705,1149
155716,1120
155726,1111
155736,1087
155745,1118
155756,1092
155766,1066
155776,1066
155785,1066
155796,1053
155806,1034
155816,1025
155825,1013
155836,1007
155846,989
155856,970
155865,980
155876,964
155886,958
155896,951
155928,906
155934,903
155946,937
155955,922
155966,922
155975,904
155984,918
155994,912
156005,889
156015,889
156025,878
156035,887
156076,870
156085,861
156094,870
156105,845
156115,834
156125,828
156135,821
156144,824
156155,815
156164,836
156176,835
156184,832
156213,785
156247,845
156272,818
156285,844
156297,853
156328,889
156335,912
156367,1005
156375,923
156386,943
156395,947
156405,944
156415,958
156425,976
156435,964
156445,977
156455,978
156465,976
156475,994
156485,991
156495,981
156505,993
156515,993
156525,1002
156535,965
156545,986
156555,975
156565,986
156575,983
156585,979
156595,983
156605,981
156615,970
156625,968
156635,961
156645,976
156655,968
156665,959
156675,974
156685,968
156696,947
156705,954
156716,962
156725,956
156736,942
156767,936
156775,956
156785,920
156796,947
156805,918
156816,923
156825,923
156857,907
156889,836
156894,753
156924,875
156927,835
156968,772
156976,753
156985,709
156996,698
157005,673
157016,645
157026,620
157035,582
157046,559
157055,539
157065,511
157076,477
157085,438
157095,407
157105,390
157116,389
157125,371
157136,346
157168,285
157176,305
157185,318
157195,290
157206,287
157215,290
157225,300
157236,292
157245,304
157256,318
157265,307
157276,339
157285,334
157296,365
157305,367
157316,387
157325,390
157336,391
157345,421
157356,434
157365,440
157376,448
157385,476
157396,484
157405,487
157416,528
157425,525
157436,542
157445,564
157456,589
157465,588
157495,626
157558,680
157565,716
157599,339
157606,805
157615,799
157625,805
157636,833
157645,842
157656,861
157665,868
157676,886
157685,882
157696,915
157705,935
157716,944
157725,951
157735,978
157745,984
157756,1008
157765,1001
157776,1037
157785,1047
157796,1069
157805,1068
157816,1090
157825,1091
157836,1126
157845,1122
157856,1143
157865,1156
157876,1164
157885,1170
157896,1187
157905,1207
157916,1226
157925,1225
157936,1226
157966,1259
157976,1281
157986,1258
157995,1274
158006,1304
158015,1308
158025,1301
158035,1330
158046,1335
158055,1328
158065,1348
158095,1370
158126,1345
158157,1339
158166,1325
158176,1338
158185,1300
158195,1302
158206,1251
158215,1248
158225,1205
158236,1179
158245,1161
158256,1136
158265,1078
158275,1043
158286,1004
158295,936
158305,898
158316,863
158325,834
158336,792
158368,724
158376,758
158384,726
158395,702
158405,703
158416,710
158425,735
158435,734
158446,762
158455,769
158465,784
158476,798
158485,795
158496,811
158505,824
158515,841
158525,824
158535,834
158545,844
158556,825
158565,838
158576,855
158585,856
158595,854
158606,859
158615,869
158625,872
158636,866
158645,871
158656,877
158665,889
158699,900
158705,878
158738,871
158747,907
158776,896
158786,877
158815,897
158827,909
158835,942
158845,901
158855,929
158865,935
158875,930
158886,939
158895,948
158905,968
158916,981
158925,991
158936,994
158945,1010
158955,1031
158966,1047
158975,1058
158985,1069
158996,1099
159005,1120
159016,1126
159025,1148
159035,1151
159046,1165
159055,1163
159066,1187
159075,1194
159085,1185
159096,1195
159105,1179
159115,1174
159126,1195
159135,1185
159166,1182
159175,1163
159185,1140
159196,1181
159205,1163
159215,1167
159226,1153
159235,1155
159245,1138
159255,1140
159285,1103
159295,1099
159306,1103
159315,1088
159325,1069
159353,1015
159365,1033
159393,1006
159407,992
159433,989
159447,959
159475,957
159486,921
159496,935
159505,933
159515,909
159526,915
159535,906
159567,893
159575,882
159585,883
159596,886
159606,876
159615,869
159626,847
159636,848
159645,853
159655,852
159665,849
159675,822
159686,826
159695,823
159706,809
159715,806
159725,810
159736,814
159745,800
159756,813
159765,802
159776,828
159785,817
159796,829
159805,825
159816,832
159825,844
159836,868
159845,882
159856,888
159865,892
159876,911
159885,933
159896,956
159905,953
159916,958
159925,971
159936,970
159967,987
159975,972
160004,1032
160007,822
160017,1018
160026,986
160036,982
160044,1020
160056,992
160065,985
160075,985
160085,982
160096,981
160106,997
160115,986
160126,976
160175,965
160186,962
160196,951
160206,963
160215,986
160224,1007
160236,960
160245,962
160256,942
160265,971
160275,939
160285,924
160316,885
160327,933
160355,908
160368,915
160397,944
160405,879
160415,856
160425,845
160436,827
160445,823
160456,800
160465,790
160476,760
160485,731
160496,707
160505,686
160516,667
160525,622
160535,592
160546,564
160555,543
160565,512
160575,486
160585,455
160595,433
160605,402
160615,376
160625,371
160635,341
160645,332
160655,309
160665,315
160675,304
160685,296
160695,290
160705,287
160715,293
160725,305
160735,291
160769,325
160776,348
160785,373
160795,375
160805,372
160815,378
160825,408
160835,408
160845,433
160855,438
160865,451
160898,437
160904,473
160937,527
160946,627
160956,594
160964,603
160997,646
161005,672
161015,671
161025,684
161035,705
161045,729
161055,724
161065,744
161075,745
161085,780
161095,805
161105,804
161115,808
161125,833
161135,835
161168,843
161174,899
161185,931
161195,934
161205,944
161215,954
161225,972
161235,982
161245,1007
161255,1023
161265,1035
161275,1056
161285,1056
161295,1080
161305,1099
161315,1094
161325,1116
161335,1129
161345,1161
161355,1137
161365,1173
161375,1187
161385,1206
161395,1208
161405,1202
161415,1226
161425,1241
161435,1226
161445,1260
161455,1267
161465,1287
161475,1292
161485,1296
161495,1304
161526,1416
161536,1357
161546,1346
161579,1339
161586,1347
161625,1349
161665,1286
161706,1216
161716,1227
161725,1210
161735,1177
161745,1100
161755,1084
161765,1042
161775,986
161785,986
161795,882
161805,859
161815,825
161825,800
161835,755
161845,738
161855,711
161865,714
161875,707
161885,703
161895,720
161905,714
161915,720
161925,721
161935,747
161976,811
161987,826
161996,820
162005,833
162015,831
162025,826
162035,838
162045,854
162055,851
162065,864
162075,865
162085,848
162095,861
162106,862
162116,869
162126,866
162136,865
162145,871
162155,871
162165,875
162175,891
162186,892
162196,880
162206,899
162237,898
162240,714
162246,917
162258,898
162295,902
162348,820
162357,950
162367,928
162375,904
162408,917
162415,961
162426,937
162435,996
162445,1023
162455,1019
162466,1027
162475,1052
162485,1060
162495,1074
162506,1109
162516,1127
162526,1139
162536,1145
162545,1153
162555,1161
162565,1170
162575,1173
162586,1183
162596,1178
162606,1182
162616,1187
162625,1179
162635,1183
162645,1172
162655,1186
162666,1172
162675,1202
162685,1176
162695,1168
162706,1181
162716,1163
162726,1152
162736,1158
162766,1102
162777,1141
162786,1095
162795,1113
162805,1110
162815,1096
162825,1099
162835,1077
162845,1061
162855,1043
162866,1032
162876,1039
162907,1031
162915,995
162947,984
162986,945
163026,908
163036,918
163045,914
163056,902
163065,905
163076,901
163086,874
163096,889
163105,874
163116,885
163126,879
163136,855
163177,847
163185,840
163195,841
163206,837
163216,822
163226,819
163236,813
163246,808
163256,807
163266,821
163276,810
163286,800
163296,812
163305,818
163316,808
163325,812
163336,839
163345,847
163356,850
163366,871
163376,867
163385,876
163396,888
163406,896
163416,920
163425,920
163436,956
163446,958
163456,951
163465,951
163476,995
163486,965
163496,983
163505,982
163516,995
163526,994
163536,999
163576,986
163608,1015
163634,1004
163640,818
163647,965
163654,971
163689,850
163696,981
163727,888
163735,950
163745,972
163755,954
163765,955
163775,950
163785,935
163795,950
163805,951
163815,946
163825,947
163835,938
163845,944
163855,916
163865,926
163875,924
163885,920
163895,909
163905,907
163915,911
163925,894
163935,880
163969,860
163976,824
163987,828
163995,795
164005,782
164015,772
164025,738
164035,718
164045,701
164055,679
164065,655
164075,621
164085,596
164095,551
164105,542
164115,504
164125,486
164135,450
164145,443
164155,412
164165,396
164175,378
164185,354
164195,347
164205,313
164215,310
164225,310
164256,297
164290,306
164295,274
164336,324
164346,440
164356,367
164365,356
164374,391
164386,383
164396,408
164406,419
164416,434
164426,428
164436,454
164447,488
164495,554
164505,539
164515,568
164526,583
164535,587
164546,621
164555,621
164565,661
164576,655
164585,656
164595,674
164636,749
164647,820
164655,757
164665,769
164676,774
164685,796
164696,810
164705,816
164716,834
164725,847
164736,860
164766,949
164776,906
164787,933
164796,942
164805,954
164816,971
164825,974
164836,999
164845,1000
164856,1026
164865,1027
164876,1058
164885,1070
164895,1076
164905,1103
164916,1096
164925,1117
164936,1112
164945,1156
164956,1155
164965,1160
164976,1182
164985,1198
164996,1209
165005,1207
165016,1218
165025,1229
165036,1244
165045,1237
165056,1272
165065,1268
165076,1280
165085,1282
165096,1299
165105,1310
165136,1335
165176,1343
165216,1382
165226,1367
165236,1372
165276,1262
165286,1331
165295,1335
165305,1291
165315,1289
165326,1258
165335,1235
165345,1218
165356,1171
165365,1177
165376,1099
165407,978
165415,931
165425,901
165436,865
165445,809
165456,803
165465,782
165476,738
165485,721
165495,713
165505,712
165516,690
165525,709
165536,699
165575,751
165584,789
165595,780
165605,802
165616,803
165625,823
165635,824
165646,823
165655,837
165665,834
165676,841
165685,841
165696,847
165705,860
165716,850
165725,846
165736,857
165745,869
165756,869
165765,879
165776,857
165809,835
165816,883
165849,899
165858,909
165889,902
165918,866
165925,898
165935,910
165970,925
165975,875
165985,876
165995,917
166006,916
166015,903
166025,921
166036,922
166045,937
166056,922
166065,937
166075,942
166086,959
166095,983
166105,997
166116,1003
166125,990
166136,1023
166145,1029
166155,1044
166166,1065
166175,1075
166185,1096
166195,1110
166205,1117
166216,1140
166225,1147
166235,1155
166246,1159
166255,1151
166265,1170
166276,1183
166285,1188
166296,1181
166305,1186
166315,1173
166325,1198
166335,1204
166368,1119
166375,1189
166385,1166
166395,1179
166405,1155
166416,1163
166425,1173
166456,1158
166460,990
166466,1151
166536,1105
166545,1097
166555,1079
166565,1070
166576,1057
166586,1047
166595,1050
166606,1042
166615,1021
166625,1015
166636,997
166645,1003
166655,995
166665,974
166676,971
166685,962
166696,948
166705,955
166715,946
166725,959
166735,939
166777,909
166785,832
166795,903
166806,907
166815,900
166825,900
166835,893
166845,888
166856,872
166865,883
166875,870
166886,872
166895,876
166906,863
166915,858
166925,836
166936,841
166945,837
166955,843
166966,834
166975,837
166986,816
166995,817
167005,806
167016,806
167025,821
167035,804
167077,832
167085,789
167116,757
167157,890
167167,895
167220,872
167224,930
167237,964
167245,949
167255,973
167265,979
167275,983
167286,997
167295,994
167306,985
167315,999
167325,995
167336,996
167345,989
167355,987
167366,984
167375,985
167386,1007
167395,989
167405,981
167415,975
167426,984
167435,990
167445,969
167456,976
167465,987
167475,983
167486,975
167495,960
167506,962
167515,971
167526,963
167535,964
167568,944
167576,955
167586,951
167595,936
167606,948
167615,952
167626,959
167635,933
167646,937
167655,934
167666,919
167675,925
167686,923
167695,913
167706,912
167715,908
167726,914
167735,900
167744,909
167776,885
167785,846
167818,825
167827,816
167856,777
167865,737
167876,741
167886,705
167895,663
167906,662
167915,611
167926,588
167935,576
167976,524
167986,458
167994,414
168005,412
168015,400
168026,378
168035,345
168046,340
168055,337
168066,317
168075,293
168086,313
168095,293
168106,296
168115,295
168126,305
168135,292
168146,286
168155,302
168166,317
168175,299
168186,335
168195,329
168206,343
168215,336
168226,367
168235,368
168246,376
168255,397
168266,408
168275,404
168286,439
168295,434
168306,447
168315,454
168326,473
168335,475
168367,461
168376,524
168386,554
168420,596
168425,548
168466,666
168498,657
168507,711
168516,693
168555,781
168564,758
168576,776
168585,792
168595,815
168605,814
168615,856
168625,839
168635,849
168645,860
168656,901
168664,916
168674,922
168716,992
168725,980
168735,993
168745,969
168754,1028
168765,1059
168774,1040
168786,1043
168794,1041
168806,1084
168816,1108
168825,1110
168835,1107
168869,1142
168876,1152
168886,1159
168896,1176
168905,1198
168915,1197
168925,1212
168935,1211
168945,1240
168955,1237
168965,1236
168975,1269
168985,1262
168995,1281
169005,1298
169015,1303
169025,1304
169035,1293
169045,1326
169055,1337
169065,1314
169075,1327
169085,1340
169095,1347
169105,1330
169115,1335
169125,1355
169135,1358
169176,1360
169209,1444
169213,1152
169215,1159
169225,1334
169236,1336
169245,1322
169255,1291
169265,1304
169275,1278
169285,1217
169295,1196
169305,1179
169315,1134
169325,1126
169335,1080
169378,961
169387,885
169417,885
169422,804
169425,826
169436,765
169445,721
169476,717
169486,723
169495,712
169506,715
169515,721
169525,731
169535,740
169576,785
169585,790
169595,809
169605,801
169616,825
169625,841
169635,822
169645,816
169655,831
169665,865
169675,846
169685,842
169695,847
169705,869
169715,860
169725,846
169735,853
169745,872
169755,863
169765,855
169775,862
169785,894
169795,870
169805,887
169815,893
169825,891
169835,872
169845,887
169855,877
169865,907
169875,889
169885,895
169895,888
169906,900
169916,899
169926,881
169936,895
169975,903
169985,900
170026,897
170035,930
170076,921
170087,927
170155,981
170165,1027
170176,1020
170185,1029
170195,1050
170205,1058
170215,1076
170226,1092
170236,1123
170246,1121
170256,1129
170265,1150
170275,1132
170285,1161
170295,1153
170306,1167
170316,1186
170326,1185
170336,1172
170375,1216
170385,1184
170395,1180
170405,1179
170415,1179
170426,1200
170436,1180
170446,1173
170455,1172
170466,1179
170476,1183
170486,1184
170496,1170
170505,1149
170515,1147
170525,1149
170535,1161
170546,1143
170556,1143
170566,1134
170576,1133
170585,1096
170595,1113
170605,1097
170615,1100
170626,1097
170636,1071
170646,1075
170656,1064
170665,1049
170707,998
170717,1014
170724,958
170757,927
170765,934
170798,951
170806,933
170875,880
170885,915
170896,909
170905,915
170916,910
170926,897
170936,908
170945,897
170956,898
170966,890
170976,878
170985,863
170996,882
171006,853
171016,863
171025,854
171036,850
171046,845
171056,835
171065,850
171076,837
171086,810
171096,819
171105,811
171116,820
171126,814
171136,814
171176,836
171185,828
171196,824
171206,835
171216,841
171225,831
171236,849
171246,861
171256,867
171265,870
171276,879
171286,895
171296,907
171305,919
171316,931
171326,933
171336,933
171345,949
171356,956
171366,967
171405,984
171416,985
171459,984
171464,814
171467,937
171495,1010
171515,992
171519,982
171525,1007
171535,994
171566,1013
171575,984
171585,989
171595,999
171605,991
171615,993
171625,988
171635,986
171645,966
171655,979
171665,978
171675,977
171685,972
171695,987
171705,976
171715,972
171725,962
171735,962
171745,957
171755,966
171765,976
171775,970
171785,945
171795,962
171805,949
171815,947
171825,948
171835,937
171845,942
171855,928
171865,930
171875,934
171885,921
171895,922
171905,909
171915,910
171925,902
171935,881
171965,879
171975,859
171985,855
172009,853
172013,972
172015,987
172045,776
172063,757
172069,713
172075,726
172085,699
172095,673
172105,646
172115,640
172125,622
172135,599
172145,570
172156,546
172165,512
172176,482
172185,465
172196,457
172205,433
172216,397
172225,381
172236,373
172245,357
172256,329
172265,327
172276,323
172285,314
172295,309
172305,295
172316,294
172325,289
172336,289
172365,274
172375,299
172385,306
172396,319
172405,334
172416,334
172425,320
172436,346
172445,361
172456,366
172465,361
172476,381
172485,389
172496,399
172505,402
172516,411
172525,413
172536,435
172545,447
172556,442
172565,484
172595,506
172613,504
172617,582
172625,544
172658,590
172665,574
172674,582
172685,587
172695,613
172705,629
172714,621
172725,644
172734,672
172765,651
172774,708
172785,712
172794,734
172805,720
172814,754
172824,755
172835,759
172844,775
172855,804
172865,811
172874,824
172885,823
172894,840
172904,843
172915,858
172924,864
172935,876
172945,903
172954,902
172965,916
172974,922
172984,912
172995,942
173004,967
173015,966
173025,989
173034,983
173045,1001
173054,1004
173064,1018
173075,1032
173084,1054
173095,1065
173105,1066
173114,1088
173125,1084
173134,1076
173165,1154
173174,1116
173184,1139
173194,1147
173204,1162
173215,1181
173225,1192
173234,1183
173246,1210
173254,1223
173297,1252
173304,1276
173314,1240
173324,1252
173334,1269
173345,1289
173355,1294
173365,1311
173375,1304
173385,1312
173403,1324
173407,1265
173415,1316
173447,1353
173456,1354
173480,1355
173482,1361
173486,1369
173495,1357
173505,1367
173515,1373
173524,1367
173535,1365
173566,1398
173575,1345
173585,1338
173594,1321
173605,1313
173614,1302
173624,1259
173635,1251
173644,1207
173655,1222
173665,1208
173674,1164
173685,1127
173694,1098
173704,1057
173715,1054
173724,987
173734,979
173745,911
173754,899
173764,871
173775,827
173785,795
173794,789
173805,758
173814,721
173824,720
173834,728
173845,715
173854,715
173864,705
173874,704
173885,709
173894,718
173904,724
173914,754
173925,739
173934,746
173966,816
173975,804
173984,812
173995,819
174025,842
174057,865
174067,829
174096,848
174106,834
174114,844
174124,846
174134,858
174145,871
174154,838
174164,878
174175,881
174185,863
174194,871
174204,870
174215,876
174225,884
174234,875
174244,882
174255,884
174265,887
174274,851
174284,891
174295,878
174305,898
174314,865
174324,906
174335,902
174365,904
174375,933
174384,928
174395,901
174404,896
174414,903
174425,909
174434,880
174444,910
174454,924
174465,916
174474,897
174485,931
174494,930
174505,931
174514,919
174525,948
174534,943
174553,951
174557,956
174564,940
174575,969
174584,986
174595,1001
174604,994
174636,958
174644,1069
174675,1103
174705,1136
174737,1141
174746,1149
174795,1156
174804,1189
174815,1185
174824,1185
174835,1188
174844,1171
174854,1171
174865,1168
174874,1153
174885,1184
174894,1171
174905,1165
174914,1158
174925,1168
174934,1160
174945,1169
174954,1155
174965,1177
174974,1154
174985,1155
174994,1148
175005,1137
175014,1149
175025,1141
175034,1138
175045,1139
175054,1133
175065,1118
175074,1091
175085,1106
175094,1073
175105,1095
175114,1076
175125,1078
175134,1050
175166,1083
175174,1035
175184,1013
175195,1010
175204,997
175214,999
175224,1006
175235,990
175244,958
175254,984
175264,966
175274,958
175284,951
175294,953
175314,933
175317,919
175325,953
175356,914
175385,907
175395,915
175404,890
175414,881
175425,904
175434,881
175444,879
175454,872
175464,886
175474,860
175484,868
175494,857
175504,862
175514,847
175524,848
175534,858
175564,917
175575,852
175584,832
175594,826
175604,813
175614,824
175624,822
175634,799
175644,802
175654,794
175664,818
175674,791
175685,814
175694,785
175704,809
175714,780
175724,794
175734,785
175744,786
175754,776
175764,802
175774,813
175784,814
175794,820
175804,836
175814,832
175824,837
175834,849
175844,870
175854,866
175864,881
175874,875
175884,899
175904,918
175908,943
175914,913
175924,888
175955,940
175985,965
176015,966
176024,989
176034,967
176044,955
176054,995
176064,968
176074,996
176084,977
176094,988
176104,985
176114,966
176124,986
176134,983
176144,979
176154,973
176164,984
176174,974
176184,981
176194,968
176204,981
176214,969
176224,962
176234,981
176244,971
176254,977
176264,969
176274,948
176284,966
176294,969
176304,952
176314,955
176324,963
176334,965
176364,1050
176374,920
176384,960
176394,957
176404,943
176414,941
176424,941
176434,933
176444,923
176454,937
176464,922
176474,902
176484,929
176494,926
176504,915
176514,908
176545,901
176579,881
176582,971
176586,957
176595,906
176627,864
176635,855
176645,838
176655,839
176664,814
176674,812
176684,777
176694,775
176704,767
176714,752
176724,732
176734,721
176765,620
176774,644
176784,601
176794,589
176804,573
176814,559
176825,538
176835,527
176845,495
176855,486
176864,446
176874,451
176884,427
176894,393
176905,383
176915,375
176925,358
176935,341
176944,329
176954,305
176964,300
176974,308
176985,311
176995,286
177005,295
177015,293
177024,293
177034,286
177044,280
177054,290
177065,298
177075,299
177085,313
177095,301
177104,312
177114,318
177124,319
177134,340
177167,368
177175,372
177206,420
177235,429
177246,433
177255,440
177265,442
177275,451
177285,469
177295,515
177305,489
177314,479
177324,472
177334,481
177385,568
177395,602
177404,586
177414,571
177424,602
177434,626
177444,615
177454,608
177464,646
177475,658
177484,634
177495,664
177505,701
177535,697
177545,733
177575,813
177604,805
177615,786
177624,816
177635,831
177645,846
177655,834
177664,842
177675,859
177685,881
177695,887
177704,873
177715,913
177725,912
177735,924
177744,935
177755,949
177765,960
177775,978
177784,971
177795,990
177805,999
177815,1005
177824,988
177835,1038
177845,1056
177855,1053
177864,1045
177875,1055
177885,1089
177895,1089
177904,1076
177915,1100
177925,1122
177935,1131
177966,1169
177974,1126
177985,1166
177995,1194
178005,1198
178015,1192
178024,1210
178035,1200
178045,1239
178055,1244
178064,1231
178075,1258
178085,1257
178115,1275
178125,1286
178155,1317
178167,1313
178175,1331
178205,1357
178232,1342
178244,1356
178255,1343
178264,1350
178275,1361
178285,1369
178295,1357
178304,1354
178315,1358
178325,1384
178335,1357
178367,1407
178376,1384
178384,1333
178394,1325
178404,1318
178414,1298
178424,1304
178434,1273
178444,1254
178454,1249
178464,1230
178474,1211
178484,1177
178494,1133
178504,1121
178514,1117
178524,1060
178534,1041
178544,1006
178554,985
178564,943
178574,892
178584,884
178594,871
178604,829
178614,807
178624,790
178634,785
178644,736
178654,736
178664,712
178674,709
178684,712
178694,722
178704,709
178714,708
178724,708
178734,721
178787,788
178796,782
178806,785
178815,764
178847,891
178856,817
178885,841
178916,856
178925,856
178934,850
178944,845
178954,860
178964,861
178974,865
178984,855
178996,868
179006,875
179016,880
179025,880
179036,873
179046,880
179056,869
179066,859
179076,882
179086,884
179096,885
179105,894
179116,889
179125,882
179136,882
179166,893
179175,919
179185,904
179195,906
179205,898
179215,918
179225,909
179235,894
179245,910
179255,914
179265,900
179275,921
179285,925
179295,910
179305,921
179315,912
179325,926
179335,928
179345,927
179355,933
179365,948
179375,941
179385,948
179395,942
179405,956
179415,971
179446,981
179455,1017
179506,1061
179536,983
179566,1136
179576,1142
179585,1136
179595,1161
179605,1169
179615,1170
179625,1188
179635,1184
179645,1191
179655,1200
179665,1191
179675,1184
179685,1195
179695,1196
179705,1192
179715,1202
179725,1210
179735,1198
179745,1199
179755,1203
179765,1194
179775,1199
179785,1199
179795,1190
179805,1193
179815,1178
179825,1194
179835,1158
179845,1184
179855,1181
179865,1180
179875,1172
179885,1161
179895,1160
179905,1150
179915,1145
179925,1136
179936,1128
179966,1109
179975,1112
179985,1117
179996,1099
180005,1080
180016,1083
180025,1055
180036,1083
180065,1054
180083,1022
180088,1006
180095,985
180126,979
180135,971
180146,979
180155,968
180166,977
180175,966
180185,952
180196,943
180205,950
180216,960
180225,944
180236,950
180245,922
180256,945
180265,918
180276,927
180285,923
180296,924
180305,907
180316,929
180325,904
180336,900
180365,866
180375,871
180385,891
180395,895
180406,887
180415,884
180425,869
180436,883
180445,866
180456,857
180465,850
180476,855
180485,849
180496,848
180505,834
180516,832
180525,837
180536,819
180545,821
180556,835
180565,819
180576,820
180585,806
180596,826
180605,809
180616,834
180666,819
180697,823
180705,835
180735,854
180764,880
180766,883
180776,913
180785,908
180795,928
180806,930
180815,936
180825,936
180836,954
180845,943
180856,970
180865,981
180876,978
180885,970
180896,986
180905,991
180916,979
180925,982
180936,984
180945,997
180956,995
180965,986
180976,994
180985,996
180996,984
181005,982
181016,982
181025,1000
181036,980
181045,979
181056,977
181065,976
181076,986
181085,973
181096,972
181105,990
181116,973
181125,973
181136,974
181167,1004
181176,972
181186,985
181195,973
181205,976
181216,966
181225,963
181236,969
181245,960
181256,951
181265,967
181276,969
181305,949
181335,950
181344,928
181375,959
181385,924
181395,952
181405,925
181416,927
181425,935
181435,929
181445,932
181455,911
181465,899
181474,888
181525,883
181535,891
181546,857
181556,856
181566,846
181576,835
181585,838
181595,816
181605,798
181615,766
181625,761
181657,710
181665,709
181675,663
181686,654
181695,620
181705,606
181715,587
181726,563
181735,552
181745,525
181756,513
181765,483
181775,467
181785,443
181796,438
181805,405
181816,401
181825,390
181835,356
181845,355
181855,350
181865,325
181876,322
181885,330
181896,300
181905,308
181916,300
181925,300
181936,298
181965,294
181975,267
181986,283
181995,319
182006,311
182015,331
182025,324
182036,332
182045,345
182056,351
182065,342
182075,367
182086,377
182095,386
182105,387
182116,400
182125,383
182157,445
182181,450
182195,448
182205,493
182237,491
182248,534
182275,558
182285,568
182295,586
182305,606
182315,615
182326,629
182335,623
182366,664
182376,683
182385,673
182396,691
182405,705
182415,721
182425,716
182436,756
182445,737
182455,771
182465,758
182475,792
182486,795
182495,816
182505,804
182515,832
182526,853
182535,855
182546,877
182555,895
182566,900
182575,926
182586,921
182595,941
182605,957
182616,983
182625,1000
182635,1010
182646,1012
182655,1052
182666,1063
182675,1078
182685,1081
182696,1117
182705,1133
182715,1138
182726,1168
182735,1184
182766,1257
182792,1190
182806,1328
182837,1321
182844,1344
182871,1313
182907,1366
182915,1381
182925,1380
182936,1401
182945,1394
182955,1407
182966,1397
182975,1423
182986,1420
182995,1440
183005,1441
183016,1444
183025,1454
183036,1454
183045,1472
183056,1480
183065,1477
183076,1477
183085,1478
183096,1481
183105,1492
183116,1499
183125,1506
183136,1500
183165,1493
183175,1504
183186,1483
183195,1501
183206,1480
183216,1499
183225,1493
183236,1495
183245,1478
183256,1467
183265,1466
183276,1466
183285,1482
183296,1438
183305,1425
183316,1416
183325,1404
183336,1373
183345,1345
183356,1321
183365,1310
183376,1275
183385,1249
183396,1237
183405,1200
183436,1132
183464,1048
183468,1500
183496,960
183506,930
183515,884
183526,878
183535,852
183567,858
183576,831
183585,827
183596,835
183605,849
183616,843
183625,860
183636,869
183645,868
183656,871
183665,873
183676,906
183685,907
183696,907
183726,904
183735,939
183746,951
183755,961
183766,954
183775,957
183785,979
183796,968
183805,981
183815,963
183825,976
183835,992
183845,990
183855,978
183865,1000
183875,988
183885,988
183895,982
183905,989
183915,1003
183925,990
183935,996
183966,992
183976,1019
183985,1018
183995,1012
184005,1011
184038,1019
184046,1021
184078,1103
184103,1017
184117,1057
184125,1019
184135,1031
184145,1030
184155,1051
184165,1049
184175,1036
184185,1043
184195,1050
184205,1035
184215,1055
184225,1051
184235,1059
184245,1058
184255,1053
184265,1065
184275,1072
184285,1074
184295,1077
184305,1095
184315,1094
184325,1100
184335,1101
184366,1145
184375,1161
184385,1154
184395,1170
184405,1214
184415,1207
184425,1218
184435,1221
184445,1245
184455,1219
184465,1263
184475,1265
184485,1280
184495,1270
184505,1290
184515,1295
184525,1299
184535,1294
184545,1301
184555,1310
184565,1307
184575,1307
184585,1334
184595,1304
184605,1318
184615,1303
184646,1305
184656,1301
184688,1309
184716,1293
184725,1294
184736,1299
184768,1273
184777,1307
184785,1294
184795,1278
184805,1269
184815,1268
184825,1256
184835,1261
184845,1257
184855,1242
184865,1269
184875,1245
184885,1223
184895,1210
184905,1216
184915,1188
184925,1191
184935,1171
184945,1194
184955,1158
184965,1165
184975,1168
184985,1158
184995,1143
185005,1140
185015,1128
185025,1137
185035,1125
185045,1104
185055,1120
185065,1101
185075,1099
185085,1081
185095,1089
185105,1096
185115,1076
185125,1082
185135,1078
185166,1056
185177,1081
185185,1055
185195,1064
185205,1061
185215,1059
185225,1050
185257,1036
185265,1063
185294,1044
185306,1020
185335,1018
185347,982
185359,1007
185366,996
185375,984
185386,991
185396,973
185406,984
185416,979
185425,976
185435,969
185445,974
185455,964
185466,962
185476,956
185486,975
185496,944
185505,958
185515,946
185525,965
185535,947
185569,973
185575,959
185586,961
185595,975
185605,995
185615,1006
185626,990
185636,1013
185646,1007
185656,1020
185665,1033
185675,1036
185685,1062
185695,1061
185706,1063
185716,1084
185726,1077
185736,1099
185745,1103
185755,1092
185765,1109
185775,1116
185786,1127
185796,1125
185806,1140
185816,1130
185825,1130
185835,1135
185845,1144
185855,1127
185885,1158
185896,1151
185904,1145
185916,1129
185926,1131
185935,1137
185945,1109
185955,1116
185965,1129
185976,1130
185985,1171
185996,1146
186006,1143
186016,1137
186065,1110
186074,1140
186085,1150
186095,1105
186105,1132
186115,1113
186126,1120
186136,1124
186146,1119
186155,1104
186165,1108
186194,1081
186205,1073
186235,1070
186248,1051
186256,1077
186286,1081
186297,1079
186325,1097
186335,1055
186368,1043
186375,1057
186386,1066
186395,1051
186406,1034
186416,1027
186426,1032
186436,1016
186446,1005
186456,998
186465,994
186476,986
186486,980
186496,949
186505,947
186516,924
186526,914
186536,891
186545,893
186556,864
186566,847
186576,841
186585,820
186596,797
186606,754
186616,745
186625,731
186636,722
186646,702
186656,666
186665,646
186676,639
186686,616
186696,606
186705,567
186716,558
186726,543
186736,527
186766,486
186799,465
186807,445
186815,452
186826,437
186858,434
186866,440
186896,443
186901,448
186907,482
186917,485
186944,463
186949,487
186956,495
186965,514
186975,515
186985,535
186995,510
187005,534
187015,558
187025,554
187035,568
187045,566
187055,577
187065,605
187075,596
187085,623
187095,627
187105,627
187115,630
187125,668
187135,657
187166,685
187176,705
187185,716
187195,731
187205,741
187215,740
187225,759
187235,770
187245,788
187255,794
187265,792
187275,812
187285,816
187295,842
187305,834
187315,851
187325,864
187335,861
187345,883
187355,889
187365,909
187375,905
187385,929
187395,934
187405,947
187415,953
187425,968
187435,977
187445,984
187455,999
187486,1018
187496,1033
187525,1082
187556,1101
187567,1103
187616,1150
187626,1173
187635,1195
187668,1210
187675,1190
187685,1234
187696,1236
187705,1256
187716,1256
187725,1267
187736,1276
187745,1306
187756,1293
187765,1311
187775,1314
187785,1332
187796,1324
187805,1350
187816,1338
187825,1365
187835,1374
187846,1364
187855,1382
187865,1389
187876,1403
187885,1426
187896,1408
187905,1407
187916,1423
187925,1436
187936,1445
187966,1512
187976,1418
187985,1456
187995,1477
188006,1488
188015,1492
188025,1486
188036,1487
188045,1492
188056,1487
188065,1499
188076,1488
188085,1484
188096,1501
188105,1498
188116,1484
188125,1500
188136,1485
188145,1487
188156,1469
188165,1487
188199,1416
188227,1461
188254,1374
188266,1269
188275,1242
188285,1232
188296,1161
188305,1177
188316,1111
188325,1102
188336,1059
188367,979
188375,955
188385,990
188396,895
188405,882
188416,873
188425,869
188436,851
188445,864
188456,845
188465,851
188476,866
188485,877
188496,875
188505,897
188516,887
188525,906
188536,910
188545,934
188556,941
188565,957
188576,954
188585,960
188596,969
188605,984
188616,959
188625,980
188636,972
188645,989
188656,982
188665,985
188676,992
188685,1016
188696,1008
188705,992
188716,1006
188725,1017
188736,992
188768,1017
188775,1040
188806,1018
188833,1019
188845,1060
188876,1050
188888,1033
188895,1034
188905,1034
188915,1040
188926,1032
188935,1034
188945,1026
188956,1049
188965,1045
188976,1056
188985,1062
188996,1039
189005,1045
189016,1039
189025,1051
189036,1057
189045,1051
189056,1063
189065,1061
189076,1060
189085,1059
189096,1072
189105,1067
189116,1089
189125,1077
189136,1093
189168,1110
189177,1118
189185,1135
189195,1128
189205,1130
189216,1164
189225,1165
189235,1177
189246,1193
189255,1198
189265,1211
189276,1229
189285,1221
189296,1246
189305,1265
189315,1275
189326,1277
189335,1285
189345,1294
189356,1311
189365,1318
189376,1311
189385,1310
189418,1345
189444,1329
189447,1089
189458,1327
189488,1337
189496,1323
189507,1352
189535,1304
189567,1270
189577,1298
189586,1337
189595,1294
189605,1290
189616,1311
189625,1290
189635,1282
189646,1292
189655,1273
189665,1257
189676,1273
189685,1255
189696,1248
189705,1242
189715,1235
189726,1241
189735,1213
189745,1203
189756,1212
189765,1185
189775,1180
189785,1162
189796,1171
189805,1143
189816,1165
189847,1120
189855,1111
189865,1114
189875,1099
189886,1110
189895,1090
189905,1089
189916,1079
189925,1073
189936,1082
189969,1033
189976,1050
189987,1077
189995,1054
190005,1050
190016,1056
190025,1045
190035,1045
190065,1050
190076,1017
190085,1023
190095,1020
190106,1041
190116,1025
190126,1003
190135,991
190145,991
190154,1009
190164,995
190175,970
190216,934
190225,969
190235,959
190245,962
190255,968
190264,992
190275,942
190286,978
190296,945
190305,959
190315,993
190325,1009
190335,972
190367,997
190376,1022
190405,990
190416,1004
190424,913
190457,1039
190466,1061
190475,1070
190486,1080
190495,1084
190506,1092
190515,1093
190525,1106
190536,1110
190545,1126
190556,1116
190565,1123
190575,1124
190585,1133
190595,1133
190606,1133
190615,1134
190626,1141
190635,1137
190645,1126
190656,1147
190665,1137
190675,1142
190686,1118
190695,1120
190706,1140
190715,1117
190725,1138
190736,1130
190766,1128
190777,1127
190786,1129
190796,1122
190805,1124
190816,1126
190825,1119
190836,1126
190845,1113
190856,1105
190865,1115
190875,1105
190886,1104
190895,1102
190906,1108
190915,1099
190926,1092
190935,1097
190946,1096
190955,1089
190988,1081
191018,1062
191025,1073
191035,1056
191067,1069
191075,1039
191086,1034
191095,1035
191106,1029
191115,1030
191126,1020
191135,1015
191167,1113
191177,966
191186,967
191195,952
191206,932
191215,934
191226,910
191235,892
191246,867
191255,848
191266,823
191275,804
191286,787
191295,766
191306,739
191315,713
191326,702
191335,672
191346,657
191355,622
191366,595
191375,574
191386,574
191395,533
191406,529
191415,495
191426,493
191435,469
191446,469
191455,457
191466,457
191475,438
191486,465
191495,437
191505,432
191516,435
191525,440
191535,449
191579,548
191606,389
191616,531
191644,525
191655,555
191664,522
191729,581
191737,625
191745,626
191755,626
191765,643
191775,650
191785,657
191795,681
191805,673
191815,696
191825,693
191835,703
191845,724
191855,747
191865,749
191875,753
191885,777
191895,786
191905,786
191915,811
191925,817
191935,840
191968,799
191975,874
191986,860
191995,884
192005,901
192015,925
192025,922
192035,938
192045,945
192055,956
192065,976
192075,985
192085,995
192095,1012
192105,1016
192115,1037
192125,1051
192135,1070
192145,1072
192155,1080
192165,1089
192175,1107
192185,1106
192195,1124
192205,1136
192215,1161
192225,1150
192235,1178
192276,1184
192284,1242
192315,1284
192346,1289
192356,1323
192386,1303
192390,956
192398,1331
192407,1337
192415,1342
192425,1373
192435,1372
192445,1392
192455,1395
192465,1398
192475,1405
192485,1426
192495,1423
192505,1422
192515,1435
192525,1442
192535,1457
192545,1454
192555,1469
192565,1467
192575,1484
192585,1488
192595,1484
192605,1478
192615,1485
192625,1481
192635,1483
192645,1488
192655,1485
192665,1493
192675,1478
192685,1495
192695,1506
192705,1493
192715,1502
192725,1470
192735,1467
192766,1460
192778,1443
192785,1397
192795,1373
192805,1381
192815,1330
192825,1319
192836,1318
192845,1240
192855,1220
192886,1062
192916,1018
192926,990
192965,907
192998,1478
193005,889
193035,871
193045,866
193055,882
193065,872
193075,903
193085,903
193095,926
193105,912
193115,931
193125,942
193135,952
193168,990
193174,966
193186,985
193195,984
193205,983
193215,998
193225,992
193235,1002
193245,1005
193255,985
193266,1012
193276,1008
193286,1027
193296,1027
193305,1012
193315,1018
193325,1021
193335,1022
193346,1024
193356,1033
193366,1041
193376,1021
193385,1030
193395,1027
193405,1028
193415,1036
193426,1049
193436,1041
193446,1040
193456,1034
193465,1051
193475,1048
193485,1043
193495,1052
193506,1054
193516,1059
193526,1048
193558,1041
193568,1070
193575,1090
193616,1075
193628,1114
193666,1122
193696,1126
193700,1041
193706,1176
193716,1179
193726,1199
193736,1209
193745,1205
193755,1223
193765,1237
193775,1238
193786,1255
193796,1285
193806,1297
193816,1292
193825,1322
193835,1316
193845,1326
193855,1320
193866,1320
193876,1318
193886,1321
193896,1327
193905,1340
193916,1325
193926,1330
193936,1324
193976,1327
193986,1317
193996,1311
194006,1314
194016,1320
194026,1303
194036,1319
194046,1306
194056,1299
194066,1268
194076,1293
194086,1269
194096,1275
194105,1267
194116,1271
194126,1260
194136,1237
194145,1249
194156,1229
194166,1196
194176,1204
194185,1177
194196,1187
194238,1181
194246,1164
194285,1105
194296,1131
194325,1099
194335,1082
194346,1083
194356,1072
194365,1080
194376,1086
194385,1038
194395,1074
194405,1076
194416,1071
194425,1054
194436,1069
194482,1040
194494,1048
194506,1027
194516,1024
194525,1003
194535,995
194545,1006
194555,999
194565,999
194576,991
194584,992
194595,985
194605,974
194638,955
194646,959
194654,968
194665,948
194675,955
194685,953
194695,956
194705,945
194715,958
194725,962
194735,982
194766,996
194777,981
194785,968
194795,997
194805,1014
194815,1026
194825,1051
194835,1062
194845,1055
194855,1065
194865,1080
194875,1090
194885,1096
194895,1092
194905,1093
194915,1112
194925,1118
194935,1114
194945,1106
194955,1131
194965,1125
194975,1121
194985,1131
194995,1135
195005,1132
195015,1135
195025,1135
195035,1124
195045,1118
195055,1126
195065,1106
195075,1113
195085,1112
195095,1100
195105,1106
195115,1089
195125,1082
195158,973
195167,1051
195196,1078
195200,1080
195204,992
195214,1025
195225,1010
195256,1012
195266,1021
195277,1015
195307,979
195315,949
195325,965
195335,951
195345,952
195355,949
195365,951
195375,926
195385,933
195395,927
195405,928
195416,913
195425,916
195436,914
195445,905
195456,876
195465,900
195476,864
195485,861
195496,845
195505,831
195516,825
195525,811
195536,808
195567,708
195576,734
195586,702
195595,676
195606,659
195615,638
195625,616
195636,589
195645,568
195656,538
195665,527
195676,485
195685,480
195696,447
195705,433
195716,404
195725,385
195736,381
195745,377
195756,344
195765,327
195776,318
195785,322
195796,303
195805,308
195816,311
195845,297
195856,305
195888,402
195917,261
195926,356
195985,403
195988,538
195997,419
196030,545
196035,448
196076,538
196085,474
196095,526
196105,546
196116,554
196125,576
196136,599
196145,600
196156,606
196165,636
196176,639
196185,661
196196,669
196205,675
196216,692
196225,701
196236,703
196245,742
196256,724
196265,747
196276,750
196285,783
196296,769
196305,799
196316,812
196325,831
196336,833
196365,948
196376,890
196387,891
196395,911
196405,939
196416,932
196426,944
196435,964
196446,964
196455,982
196465,1007
196476,1019
196485,1022
196495,1021
196505,1047
196516,1061
196525,1083
196536,1098
196566,1118
196598,1141
196637,1171
196647,1200
196655,1224
196665,1240
196676,1231
196685,1248
196696,1264
196705,1270
196716,1267
196725,1286
196736,1292
196776,1306
196786,1326
196795,1330
196805,1348
196816,1354
196825,1348
196836,1332
196845,1344
196856,1371
196865,1360
196876,1367
196885,1367
196895,1372
196905,1366
196916,1367
196925,1367
196936,1368
196945,1359
196955,1309
196966,1338
196975,1314
196985,1294
196996,1282
197005,1275
197015,1237
197025,1200
197036,1180
197045,1144
197056,1099
197065,1082
197075,1030
197085,994
197095,968
197105,917
197116,878
197125,863
197136,823
197169,747
197176,725
197207,728
197210,1367
197216,714
197225,755
197256,724
197266,690
197298,800
197307,805
197346,822
197355,833
197365,841
197376,844
197385,854
197395,842
197405,851
197415,839
197425,863
197436,876
197445,869
197456,873
197466,879
197475,875
197486,888
197495,878
197505,872
197516,901
197525,877
197535,881
197568,907
197577,910
197587,892
197595,891
197605,902
197616,922
197625,889
197635,898
197646,912
197655,893
197665,896
197676,918
197685,908
197696,925
197705,900
197715,910
197726,928
197735,920
197746,924
197755,907
197765,934
197776,930
197785,926
197795,936
197805,952
197816,971
197825,969
197835,985
197868,998
197871,881
197875,1028
197917,1097
197955,1133
197965,1151
198006,1181
198017,1189
198025,1167
198035,1188
198045,1194
198056,1199
198065,1189
198075,1197
198086,1211
198095,1190
198106,1190
198115,1179
198125,1193
198136,1180
198145,1166
198155,1161
198166,1176
198175,1171
198186,1192
198195,1152
198205,1154
198216,1152
198225,1149
198236,1150
198245,1134
198255,1128
198265,1112
198275,1103
198286,1116
198295,1095
198306,1097
198315,1064
198325,1070
198336,1064
198369,975
198376,1041
198385,990
198395,993
198406,1015
198415,993
198426,980
198435,969
198445,976
198456,959
198486,940
198526,956
198556,915
198567,915
198576,904
198585,896
198596,903
198605,887
198616,884
198625,877
198636,894
198645,852
198656,885
198665,862
198676,863
198685,843
198696,869
198705,838
198716,869
198725,825
198736,844
198776,792
198785,803
198795,809
198805,833
198815,821
198826,826
198835,822
198845,813
198855,817
198865,831
198875,875
198885,868
198895,844
198943,885
198954,928
198965,894
198975,904
198985,941
198995,935
199005,959
199015,950
199026,979
199035,1028
199046,966
199055,981
199065,993
199097,986
199125,1001
199127,809
199137,963
199145,1005
199178,923
199186,987
199226,981
199236,1027
199277,968
199285,973
199295,980
199305,968
199315,967
199325,965
199335,968
199345,942
199355,953
199365,954
199375,951
199385,953
199395,927
199405,939
199415,951
199425,935
199435,927
199445,919
199455,924
199465,912
199475,911
199485,917
199495,909
199505,906
199515,908
199525,891
199535,894
199576,861
199585,825
199595,841
199605,800
199615,787
199625,791
199635,764
199645,734
199655,734
199665,711
199675,676
199685,654
199695,631
199705,619
199715,582
199725,562
199735,552
199745,528
199755,512
199765,478
199775,457
199809,454
199816,366
199856,363
199868,298
199906,291
199915,307
199925,283
199935,290
199976,330
199985,336
199997,359
200005,309
200015,365
200025,368
200035,377
200045,379
200055,409
200066,392
200075,418
200085,444
200095,449
200105,450
200115,472
200125,497
200135,495
200145,496
200155,531
200165,537
200175,557
200185,510
200195,571
200205,588
200215,598
200225,588
200235,629
200245,645
200255,658
200265,649
200275,691
200285,687
200295,710
200305,684
200315,730
200325,734
200335,768
200370,751
200376,815
200385,817
200396,824
200405,819
200415,848
200447,882
200455,913
200496,939
200506,952
200537,973
200546,1017
200580,1064
200585,1083
200595,1101
200605,1051
200615,1105
200625,1095
200635,1129
200645,1135
200655,1159
200665,1135
200675,1170
200685,1183
200695,1185
200705,1180
200715,1205
200725,1220
200735,1231
200776,1268
200808,1264
200810,908
200816,1296
200825,1308
200835,1317
200845,1315
200855,1318
200865,1335
200875,1334
200885,1358
200895,1361
200906,1335
200916,1334
200926,1358
200936,1330
200945,1353
200955,1349
200965,1364
200975,1369
200986,1319
200996,1340
201006,1329
201016,1328
201025,1339
201035,1312
201045,1299
201055,1282
201066,1250
201076,1234
201086,1186
201119,1161
201122,1268
201127,1106
201135,1041
201146,1052
201176,919
201207,800
201217,738
201248,721
201255,714
201266,711
201295,727
201306,697
201316,730
201326,729
201336,758
201346,757
201356,778
201366,793
201376,811
201385,808
201395,827
201405,833
201415,820
201426,844
201436,842
201446,866
201456,852
201465,841
201475,871
201485,867
201495,853
201506,861
201516,860
201526,871
201536,882
201576,867
201585,861
201595,893
201605,882
201616,892
201625,903
201636,901
201646,895
201656,886
201665,911
201676,900
201686,887
201696,924
201705,913
201716,908
201726,900
201736,902
201745,930
201756,917
201766,925
201776,928
201785,934
201795,924
201828,855
201836,935
201876,966
201910,984
201918,1061
201926,1042
201936,1063
201977,886
201985,1134
201995,1156
202006,1166
202016,1168
202025,1180
202036,1177
202046,1198
202056,1192
202065,1209
202076,1191
202086,1198
202096,1213
202105,1208
202115,1209
202126,1196
202136,1194
202145,1204
202156,1190
202166,1196
202176,1185
202211,1197
202215,1186
202226,1177
202236,1170
202246,1148
202256,1159
202265,1163
202276,1160
202286,1149
202296,1120
202305,1132
202316,1112
202326,1117
202336,1094
202377,1079
202386,1049
202396,1037
202405,1031
202415,1031
202450,960
202456,1006
202465,966
202498,947
202505,921
202545,938
202555,949
202565,937
202575,926
202585,920
202595,926
202605,943
202615,905
202625,919
202635,909
202645,902
202655,886
202665,890
202675,897
202685,885
202695,877
202705,884
202715,863
202725,871
202735,858
202776,840
202785,847
202795,845
202805,833
202815,825
202825,829
202835,826
202845,841
202855,826
202865,831
202875,831
202885,837
202895,819
202905,854
202915,867
202925,871
202935,868
202945,887
202955,887
202965,902
202975,911
202985,918
202995,933
203005,940
203015,946
203025,958
203035,979
203045,980
203087,978
203095,976
203105,990
203116,975
203125,984
203136,966
203146,992
203156,979
203166,965
203175,978
203186,950
203195,982
203205,982
203246,1057
203255,978
203265,974
203276,960
203285,983
203295,967
203305,975
203316,971
203326,981
203336,967
203345,982
203380,966
203383,980
203387,961
203419,943
203425,938
203435,951
203468,929
203476,910
203486,944
203495,927
203505,943
203516,940
203525,934
203535,903
203568,912
203576,878
203585,912
203596,907
203605,887
203616,868
203625,850
203636,850
203645,842
203656,809
203665,820
203676,787
203685,774
203696,752
203705,732
203716,705
203725,668
203736,656
203745,646
203756,624
203765,582
203776,561
203785,536
203796,533
203805,498
203816,474
203825,442
203836,428
203845,413
203856,390
203865,381
203876,362
203885,354
203896,339
203905,320
203916,314
203925,314
203936,324
203968,215
203976,296
204007,314
204015,296
204060,364
204063,656
204067,367
204075,413
204086,392
204104,401
204108,433
204116,445
204126,436
204135,456
204145,482
204155,482
204166,503
204176,505
204185,525
204196,547
204205,565
204216,552
204225,573
204236,603
204245,596
204255,607
204265,628
204276,636
204285,658
204296,666
204305,655
204316,684
204325,701
204336,708
204366,741
204375,751
204386,764
204395,789
204406,795
204415,784
204425,822
204436,827
204445,833
204456,848
204465,852
204476,867
204485,895
204496,906
204505,928
204516,920
204525,929
204536,948
204545,964
204556,974
204565,992
204576,1005
204585,997
204596,1016
204605,1027
204616,1052
204625,1071
204643,1061
204647,701
204677,1134
204687,1108
204736,1190
204747,1214
204777,1210
204806,1236
204815,1262
204825,1248
204836,1309
204845,1309
204856,1303
204865,1302
204875,1306
204886,1319
204895,1326
204905,1350
204916,1349
204925,1363
204936,1357
204946,1367
204955,1375
204966,1332
204975,1360
204985,1383
204996,1368
205005,1366
205016,1373
205025,1366
205035,1350
205046,1354
205055,1342
205065,1349
205076,1334
205085,1323
205096,1283
205105,1281
205115,1253
205126,1241
205135,1194
205166,1100
205175,1078
205185,1027
205196,1005
205205,963
205216,919
205246,799
205256,784
205265,766
205275,740
205320,730
205324,1368
205327,642
205357,712
205366,747
205375,744
205385,781
205396,781
205405,799
205416,806
205425,814
205435,812
205446,845
205455,830
205465,850
205476,851
205485,855
205496,854
205505,852
205515,849
205525,850
205535,866
205567,871
205575,887
205585,855
205596,880
205605,889
205615,889
205625,876
205635,875
205645,883
205655,900
205665,899
205675,896
205686,903
205695,887
205706,905
205715,911
205725,904
205736,905
205745,901
205755,902
205766,910
205775,910
205786,915
205795,915
205805,916
205816,939
205825,917
205835,923
205846,940
205855,916
205901,960
205905,962
205909,968
205930,985
205935,889
205938,1019
205965,1188
205976,1248
205985,1294
205996,1402
206005,1504
206015,1568
206025,1696
206035,1879
206046,2105
206055,2349
206066,2564
206075,2720
206085,2692
206096,2934
206105,3038
206115,3155
206126,3330
206135,3469
206146,3658
206155,3854
206165,4031
206176,4223
206185,4383
206195,4525
206206,4653
206215,4770
206226,4873
206235,4906
206246,4922
206255,4865
206266,4809
206275,4743
206286,4617
206295,4501
206306,4430
206315,4394
206326,4393
206335,4392
206366,4533
206375,4552
206385,4515
206396,4512
206405,4524
206416,4539
206425,4634
206436,4749
206445,4888
206456,4976
206465,5085
206496,5129
206527,5013
206537,4965
206554,4904
206557,4877
206565,4797
206575,4832
206586,4929
206595,5004
206606,5088
206615,5148
206626,5218
206635,5251
206646,5273
206655,5344
206666,5428
206675,5535
206685,5617
206696,5719
206705,5809
206716,5847
206725,5891
206736,5883
206765,5814
206775,5752
206786,5717
206795,5693
206806,5687
206815,5695
206826,5694
206835,5714
206846,5722
206855,5724
206866,5734
206875,5747
206886,5732
206895,5711
206906,5717
206915,5702
206926,5647
206935,5593
206945,5528
206956,5474
206965,5475
206976,5456
206985,5459
206996,5454
207005,5480
207016,5473
207025,5469
207035,5477
207045,5503
207055,5533
207065,5593
207097,5551
207128,5313
207135,5275
207186,5282
207195,5254
207205,5253
207216,5211
207226,5123
207236,5024
207245,4955
207255,4824
207266,4694
207275,4502
207286,4317
207295,4168
207338,3896
207345,3891
207355,3870
207366,3880
207375,3951
207386,4040
207395,4191
207406,4344
207415,4523
207426,4657
207436,4769
207448,4817
207455,4937
207465,5066
207475,5161
207485,5262
207495,5340
207505,5417
207515,5468
207525,5509
207535,5527
207566,5319
207575,5228
207585,5137
207595,5019
207605,4975
207615,4927
207625,4888
207635,4826
207645,4770
207655,4706
207665,4751
207675,4752
207685,4731
207695,4725
207705,4708
207715,4696
207725,4681
207735,4655
207745,4672
207755,4637
207765,4604
207775,4560
207785,4524
207795,4469
207805,4414
207815,4370
207825,4295
207835,4292
207845,4255
207855,4206
207865,4133
207875,4107
207885,4035
207895,3969
207905,3891
207915,3894
207925,3870
207935,3846
207990,4751
207997,3648
208005,3626
208036,3525
208045,3564
208078,3404
208086,3353
208095,3275
208106,3181
208115,3101
208125,3113
208135,3133
208145,3165
208155,3283
208165,3387
208175,3518
208185,3606
208195,3718
208205,3807
208215,3890
208225,3936
208235,4048
208245,4136
208255,4234
208265,4275
208275,4325
208285,4352
208295,4376
208305,4374
208315,4382
208325,4375
208335,4365
208365,4193
208376,4087
208385,3969
208395,3884
208405,3819
208415,3761
208425,3697
208435,3672
208445,3667
208455,3681
208465,3668
208475,3683
208485,3712
208495,3732
208505,3767
208515,3775
208525,3751
208535,3731
208545,3735
208555,3793
208565,3856
208575,3909
208585,3946
208618,4132
208647,4333
208657,4404
208686,4545
208717,4467
208726,4357
208755,4035
208766,3858
208776,3660
208785,3481
208795,3304
208805,3127
208815,2970
208826,2823
208836,2700
208846,2583
208856,2499
208887,2337
208895,2306
208905,2225
208915,2119
208925,2045
208935,1938
208946,1853
208956,1764
208966,1733
208976,1708
208985,1657
208995,1604
209005,1559
209015,1548
209026,1527
209036,1476
209046,1458
209056,1416
209065,1421
209075,1405
209085,1366
209095,1353
209106,1297
209116,1262
209126,1256
209136,1221
209145,1181
209155,1147
209165,1115
209175,1101
209186,1015
209196,1007
209206,957
209216,911
209225,888
209235,866
209266,757
209296,714
209306,725
209337,715
209366,750
209376,749
209385,752
209395,779
209405,784
209415,790
209426,799
209436,816
209446,817
209456,817
209465,830
209476,823
209486,825
209496,844
209505,853
209516,847
209526,847
209536,865
209545,857
209555,857
209566,849
209576,855
209585,867
209596,863
209606,861
209616,869
209625,876
209636,876
209667,902
209675,899
209686,882
209696,889
209705,876
209716,887
209726,884
209736,892
209745,893
209756,899
209766,893
209775,889
209785,896
209796,895
209806,896
209816,895
209825,902
209836,907
209846,929
209855,921
209866,919
209897,941
209905,966
209937,1038
209962,997
209965,1038
209968,1052
209975,1058
209986,1067
209996,1080
210006,1076
210016,1103
210025,1151
210036,1133
210063,1160
210077,1176
210085,1179
210095,1203
210105,1169
210115,1159
210125,1151
210135,1178
210146,1161
210156,1170
210165,1145
210175,1167
210185,1151
210195,1149
210205,1147
210215,1151
210225,1147
210235,1145
210245,1136
210255,1161
210265,1124
210275,1129
210285,1115
210295,1114
210305,1091
210315,1104
210325,1101
210335,1100
210345,1081
210355,1070
210365,1069
210375,1061
210385,1070
210395,1036
210405,1025
210415,1018
210425,995
210435,983
210465,977
210475,983
210508,1001
210517,950
210526,956
210557,894
210586,943
210596,906
210605,907
210615,862
210625,876
210635,879
210645,874
210655,867
210665,859
210675,853
210685,850
210695,841
210705,843
210715,850
210725,831
210735,839
210745,820
210755,812
210765,809
210775,805
210785,808
210795,791
210805,781
210815,801
210825,793
210835,792
210866,820
210875,820
210885,827
210895,813
210905,847
210915,830
210926,837
210935,876
210945,891
210956,882
210965,919
210975,918
210985,941
210996,944
211005,948
211016,952
211025,982
211036,977
211045,975
211056,989
211065,994
211076,967
211085,989
211096,958
211128,974
211137,977
211145,985
211165,996
211167,967
211177,986
211207,987
211215,983
211225,979
211235,996
211246,972
211275,968
211285,956
211295,976
211305,982
211316,957
211325,969
211336,953
211345,955
211356,950
211365,958
211376,941
211385,962
211396,919
211405,941
211416,938
211425,938
211436,924
211445,922
211456,924
211465,920
211476,911
211485,898
211496,905
211505,894
211516,872
211525,873
211536,852
211545,832
211556,830
211565,813
211576,796
211585,781
211596,757
211605,734
211616,712
211625,701
211636,657
211665,583
211675,559
211685,523
211696,486
211705,479
211716,466
211746,374
211755,382
211767,378
211776,315
211786,323
211795,306
211806,293
211816,303
211826,288
211836,297
211846,309
211856,314
211865,320
211908,303
211915,353
211925,361
211936,366
211945,392
211956,390
211966,403
211976,432
211985,430
211995,440
212006,455
212016,464
212048,510
212076,540
212086,464
212096,574
212114,586
212118,606
212126,579
212152,630
212165,664
212176,702
212185,704
212196,675
212214,717
212219,745
212225,749
212235,791
212245,774
212256,812
212265,810
212276,843
212285,839
212296,857
212305,868
212316,884
212325,917
212336,901
212345,923
212356,961
212365,963
212376,976
212385,950
212396,999
212405,1012
212416,1014
212425,1034
212436,1032
212446,1066
212455,1046
212465,1090
212476,1093
212506,1124
212516,1090
212525,1146
212536,1176
212545,1170
212555,1183
212566,1196
212575,1196
212585,1210
212596,1242
212605,1230
212616,1254
212625,1263
212635,1264
212646,1287
212655,1272
212688,1271
212697,1335
212726,1329
212757,1351
212767,1383
212795,1380
212825,1365
212835,1363
212845,1338
212856,1362
212865,1327
212875,1326
212886,1324
212895,1294
212928,1218
212937,1177
212946,1152
212955,1125
212965,1072
212975,1057
212985,1005
212996,974
213005,928
213016,879
213025,824
213035,779
213046,789
213055,724
213065,761
213076,748
213085,731
213095,699
213105,721
213116,745
213125,745
213136,764
213145,755
213155,790
213166,811
213175,777
213185,814
213195,804
213206,835
213215,813
213226,852
213235,850
213246,861
213255,828
213266,861
213275,859
213307,871
213316,861
213342,903
213378,724
213406,884
213415,891
213425,905
213435,871
213446,919
213455,880
213466,917
213475,919
213486,929
213495,907
213506,930
213515,928
213525,906
213536,921
213545,926
213555,912
213566,938
213575,892
213586,946
213596,936
213605,918
213616,949
213625,939
213635,920
213646,974
213655,943
213666,974
213675,997
213707,1028
213717,1005
213725,1069
213735,1063
213745,1064
213756,1115
213765,1121
213775,1139
213785,1162
213795,1153
213806,1187
213815,1150
213826,1200
213835,1203
213845,1176
213856,1198
213866,1201
213875,1214
213885,1191
213896,1206
213905,1192
213937,1172
213966,1170
213999,1201
214007,1160
214015,1143
214026,1191
214035,1175
214046,1177
214055,1144
214066,1155
214075,1153
214086,1140
214095,1103
214106,1122
214137,1076
214145,1045
214155,1054
214166,1073
214175,1020
214186,1017
214195,1012
214206,1014
214215,965
214226,985
214235,990
214245,959
214256,981
214265,968
214276,978
214285,956
214296,963
214305,943
214316,925
214325,925
214336,929
214345,925
214356,928
214365,928
214376,917
214385,910
214396,916
214405,897
214416,888
214425,886
214436,899
214445,876
214456,884
214465,854
214476,875
214506,831
214540,835
214545,810
214579,786
214601,816
214604,807
214606,956
214618,823
214625,809
214636,845
214645,859
214656,868
214665,865
214676,884
214685,889
214696,901
214705,919
214715,912
214726,951
214735,920
214746,973
214755,983
214766,991
214775,946
214786,1003
214795,991
214805,1005
214815,963
214825,994
214835,1011
214845,1005
214855,979
214865,1006
214875,1004
214908,1059
214916,985
214925,967
214935,972
214945,1002
214955,1001
214965,992
214975,961
214985,972
214995,958
215005,996
215015,956
215025,987
215035,982
215045,970
215055,957
215065,960
215075,974
215085,974
215095,940
215127,954
215157,963
215186,915
215196,943
215226,922
215236,892
215245,926
215255,881
215265,904
215275,900
215285,886
215314,867
215317,972
215328,879
215337,786
215345,807
215355,794
215365,770
215375,730
215385,736
215395,716
215405,722
215415,646
215425,645
215435,613
215445,596
215455,541
215465,545
215475,511
215485,492
215495,437
215505,440
215515,425
215525,393
215535,342
215545,362
215555,342
215565,326
215575,290
215585,318
215595,281
215605,275
215615,269
215625,309
215635,276
215645,271
215655,288
215665,309
215675,307
215707,344
215715,348
215726,401
215735,380
215768,444
215777,453
215808,454
215819,482
215825,465
215836,510
215846,527
215855,519
215866,538
215875,537
215885,567
215896,615
215905,568
215915,579
215925,591
215971,618
215978,704
215985,670
215995,702
216006,754
216015,720
216025,737
216035,757
216046,796
216055,780
216065,776
216075,787
216086,837
216096,860
216107,891
216136,892
216169,966
216178,981
216206,991
216216,1037
216226,1041
216235,1039
216245,1010
216255,1025
216265,1067
216275,1053
216285,1062
216295,1077
216305,1126
216315,1102
216325,1116
216335,1124
216345,1174
216355,1161
216365,1154
216375,1174
216386,1252
216396,1227
216406,1258
216416,1261
216425,1221
216435,1249
216445,1247
216455,1244
216466,1336
216476,1318
216506,1317
216516,1338
216525,1324
216535,1308
216545,1353
216555,1324
216565,1297
216575,1353
216586,1386
216596,1379
216606,1397
216616,1385
216625,1322
216635,1336
216645,1321
216655,1332
216666,1374
216676,1354
216686,1341
216696,1327
216705,1258
216738,1294
216746,1164
216773,1119
216785,995
216797,965
216826,829
216835,810
216845,780
216855,728
216866,778
216876,745
216906,692
216916,724
216925,711
216935,706
216945,710
216955,730
216965,714
216975,747
216986,811
216996,823
217006,856
217016,862
217025,801
217035,801
217045,815
217055,828
217066,880
217076,878
217086,891
217096,891
217105,827
217115,835
217125,838
217135,838
217146,906
217156,893
217166,915
217176,902
217185,887
217196,914
217206,897
217216,906
217225,907
217236,917
217246,927
217256,911
217265,903
217276,932
217307,924
217316,880
217325,911
217360,913
217367,890
217398,878
217406,923
217439,900
217468,964
217475,977
217486,1026
217496,1020
217505,1018
217516,1054
217526,1062
217536,1091
217545,1072
217556,1111
217566,1130
217576,1166
217585,1153
217595,1153
217606,1225
217616,1239
217625,1252
217636,1305
217646,1357
217656,1394
217665,1391
217676,1458
217710,906
217716,1503
217725,1534
217736,1554
217746,1563
217756,1546
217766,1561
217776,1543
217786,1531
217796,1526
217806,1533
217816,1527
217825,1477
217836,1491
217846,1480
217856,1471
217865,1420
217876,1433
217886,1411
217896,1391
217905,1341
217915,1325
217925,1303
217935,1305
217945,1276
217955,1245
217965,1230
217994,1206
218008,1125
218015,1141
218046,1058
218077,1005
218087,1068
218095,938
218128,1533
218135,937
218168,940
218176,882
218185,871
218195,895
218205,910
218215,905
218225,899
218235,896
218245,875
218255,885
218265,874
218275,867
218285,874
218295,872
218305,860
218315,825
218325,850
218335,825
218345,841
218355,821
218365,810
218375,806
218385,812
218395,806
218405,798
218415,800
218425,800
218435,805
218445,818
218455,815
218465,832
218475,823
218508,933
218516,867
218525,891
218535,896
218545,910
218555,903
218565,939
218575,934
218585,951
218617,972
218626,944
218659,980
218667,1006
218696,967
218706,962
218715,986
218725,955
218736,1019
218745,975
218756,1011
218765,996
218776,1044
218786,1031
218795,965
218806,1030
218815,949
218825,958
218836,1012
218845,955
218856,1014
218865,943
218876,996
218906,940
218915,939
218925,952
218936,987
218945,940
218956,990
218965,942
218976,963
218985,930
218996,976
219005,914
219016,958
219025,915
219035,929
219046,951
219055,887
219065,909
219076,913
219085,890
219095,902
219105,878
219116,923
219125,855
219136,910
219145,842
219156,879
219165,827
219176,854
219186,831
219195,758
219206,797
219236,694
219246,662
219279,537
219287,602
219318,482
219328,515
219357,413
219366,360
219396,326
219405,298
219416,354
219425,281
219436,331
219445,273
219456,331
219465,307
219476,331
219485,292
219496,331
219505,333
219516,342
219525,318
219536,364
219546,384
219555,340
219566,393
219575,356
219585,356
219595,399
219606,437
219615,375
219625,415
219636,450
219645,438
219656,487
219665,484
219676,511
219708,535
219717,551
219725,510
219736,603
219745,588
219756,618
219765,581
219776,647
219785,629
219796,658
219805,645
219816,706
219825,689
219836,712
219845,692
219856,737
219865,741
219876,773
219885,760
219896,800
219927,797
219935,816
219968,438
219975,862
220003,865
220015,895
220025,926
220035,946
220046,1012
220055,939
220065,968
220076,1037
220104,1050
220108,647
220116,1031
220127,1078
220136,1125
220145,1058
220155,1074
220165,1082
220175,1104
220185,1127
220196,1193
220206,1177
220215,1193
220226,1222
220275,1198
220286,1278
220296,1289
220306,1279
220316,1307
220326,1311
220335,1258
220346,1318
220356,1325
220366,1328
220377,1366
220386,1346
220395,1296
220405,1318
220415,1355
220425,1318
220436,1377
220445,1313
220456,1380
220466,1374
220475,1343
220486,1372
220495,1313
220505,1309
220537,1303
220545,1283
220577,1213
220608,1186
220615,1102
220646,1106
220656,970
220667,918
220697,818
220706,815
220715,729
220725,716
220735,705
220745,690
220756,737
220765,702
220776,731
220785,684
220795,691
220806,763
220815,719
220825,739
220835,751
220845,755
220856,821
220865,795
220875,784
220907,861
220916,810
220926,830
220936,874
220945,828
220955,833
220966,875
220975,843
220985,842
220995,855
221005,844
221016,892
221025,848
221035,828
221046,880
221055,851
221066,892
221075,853
221085,855
221096,891
221105,859
221115,848
221125,855
221136,922
221145,868
221155,868
221166,902
221175,859
221186,908
221196,913
221225,878
221256,923
221266,915
221296,917
221327,948
221356,986
221385,955
221388,851
221397,1037
221407,1102
221415,1060
221425,1070
221435,1065
221446,1121
221455,1115
221466,1139
221475,1122
221485,1128
221496,1154
221505,1155
221515,1140
221526,1178
221535,1147
221546,1185
221555,1149
221565,1171
221576,1173
221585,1137
221595,1149
221605,1137
221616,1163
221625,1157
221635,1139
221645,1145
221656,1151
221665,1122
221675,1134
221708,851
221715,1086
221725,1109
221736,1124
221745,1098
221756,1105
221765,1079
221776,1099
221785,1072
221796,1073
221805,1034
221816,1052
221825,1006
221836,1030
221845,973
221856,1005
221865,968
221876,996
221885,963
221896,983
221905,930
221937,936
221970,929
221994,911
221996,1122
222008,955
222015,874
222025,883
222035,869
222045,885
222055,876
222065,863
222076,864
222107,865
222117,864
222125,835
222135,844
222145,838
222155,804
222165,824
222175,816
222185,824
222195,810
222205,809
222215,803
222225,806
222235,806
222245,796
222255,800
222265,811
222275,812
222285,814
222295,826
222305,833
222315,808
222325,833
222335,849
222345,863
222355,857
222365,873
222375,892
222385,916
222395,907
222405,924
222415,929
222425,964
222435,966
222445,969
222455,982
222465,983
222475,969
222507,985
222536,984
222543,809
222547,981
222578,999
222585,996
222595,978
222605,977
222615,986
222625,971
222635,981
222645,966
222655,966
222665,962
222675,979
222685,972
222695,966
222705,967
222715,972
222725,947
222735,964
222745,950
222755,966
222765,961
222775,947
222785,945
222795,947
222805,925
222815,937
222825,930
222835,945
222845,921
222855,929
222865,914
222876,925
222907,894
222917,875
222926,878
222936,897
222946,882
222956,847
222966,851
222976,840
222986,826
222996,817
223006,799
223016,779
223026,764
223036,731
223046,709
223056,691
223066,668
223076,644
223106,527
223139,488
223146,459
223156,426
223166,405
223176,384
223186,367
223196,346
223206,334
223216,325
223226,326
223236,309
223246,301
223256,317
223266,303
223276,306
223307,327
223315,294
223326,332
223336,356
223346,369
223356,370
223366,382
223376,374
223386,399
223396,416
223406,435
223416,432
223426,454
223436,455
223446,472
223456,491
223466,514
223476,512
223486,530
223496,544
223506,547
223516,563
223526,565
223536,582
223546,614
223556,611
223566,625
223576,637
223586,661
223596,665
223606,678
223616,685
223626,704
223636,712
223669,767
223701,779
223727,797
223736,869
223746,837
223756,879
223766,905
223776,909
223786,936
223796,948
223806,950
223816,965
223826,991
223836,988
223846,1014
223856,1028
223866,1035
223876,1049
223886,1066
223896,1070
223906,1099
223916,1095
223926,1117
223936,1124
223946,1136
223956,1170
223966,1164
223976,1177
223986,1201
223996,1213
224006,1211
224016,1223
224026,1254
224036,1246
224046,1256
224056,1270
224066,1262
224076,1286
224110,1270
224117,1340
224126,1310
224136,1333
224146,1349
224156,1342
224166,1357
224176,1365
224186,1355
224196,1354
224206,1368
224216,1372
224226,1354
224236,1352
224246,1355
224276,1309
224307,1341
224317,1284
224325,1265
224359,1174
224366,1175
224376,1135
224386,1062
224396,1031
224406,983
224416,959
224426,904
224436,861
224446,823
224456,790
224466,766
224476,753
224509,714
224536,707
224540,1368
224548,747
224556,718
224566,757
224576,750
224586,770
224595,811
224606,801
224615,826
224625,830
224637,836
224646,853
224697,858
224706,846
224716,855
224727,867
224736,878
224746,871
224757,882
224766,882
224776,871
224786,869
224797,893
224806,898
224816,904
224826,886
224836,886
224846,904
224856,895
224886,894
224889,718
224897,898
